MULTI_REAL_FUNCTION
Damped Forced Harmonic Oscilator - both variables
2
Angle
Ang.vel.
x1: 0
x2: 30
NumPoints: 500
0 0.5 0 
0.0601202 0.499729 -0.00899154 
0.12024 0.49892 -0.0179325 
0.180361 0.497574 -0.0268266 
0.240481 0.495695 -0.0356774 
0.300601 0.493285 -0.0444884 
0.360721 0.490347 -0.0532629 
0.420842 0.486881 -0.0620038 
0.480962 0.482892 -0.0707138 
0.541082 0.478379 -0.0793952 
0.601202 0.473346 -0.0880498 
0.661323 0.467793 -0.0966788 
0.721443 0.461722 -0.105283 
0.781563 0.455134 -0.113863 
0.841683 0.448031 -0.122417 
0.901804 0.440415 -0.130945 
0.961924 0.432287 -0.139445 
1.02204 0.423649 -0.147913 
1.08216 0.414502 -0.156347 
1.14228 0.40485 -0.164742 
1.2024 0.394695 -0.173092 
1.26253 0.384038 -0.181391 
1.32265 0.372885 -0.189633 
1.38277 0.361238 -0.197809 
1.44289 0.349102 -0.205911 
1.50301 0.336481 -0.213928 
1.56313 0.323381 -0.221851 
1.62325 0.309808 -0.229668 
1.68337 0.295768 -0.237366 
1.74349 0.281269 -0.244932 
1.80361 0.26632 -0.252353 
1.86373 0.25093 -0.259614 
1.92385 0.235108 -0.266698 
1.98397 0.218865 -0.273591 
2.04409 0.202215 -0.280274 
2.10421 0.18517 -0.286732 
2.16433 0.167743 -0.292946 
2.22445 0.149951 -0.298897 
2.28457 0.131809 -0.304568 
2.34469 0.113336 -0.309938 
2.40481 0.0945485 -0.314989 
2.46493 0.075468 -0.3197 
2.52505 0.0561148 -0.324053 
2.58517 0.0365112 -0.328028 
2.64529 0.0166806 -0.331604 
2.70541 -0.00335264 -0.334763 
2.76553 -0.0235627 -0.337485 
2.82565 -0.0439228 -0.33975 
2.88577 -0.0644049 -0.341542 
2.94589 -0.08498 -0.34284 
3.00601 -0.105618 -0.343628 
3.06613 -0.126287 -0.343889 
3.12625 -0.146956 -0.343606 
3.18637 -0.167592 -0.342765 
3.24649 -0.188159 -0.34135 
3.30661 -0.208624 -0.339348 
3.36673 -0.22895 -0.336747 
3.42685 -0.249102 -0.333535 
3.48697 -0.269043 -0.329703 
3.54709 -0.288733 -0.325242 
3.60721 -0.308137 -0.320144 
3.66733 -0.327215 -0.314404 
3.72745 -0.345928 -0.308017 
3.78758 -0.364238 -0.30098 
3.8477 -0.382105 -0.293292 
3.90782 -0.39949 -0.284953 
3.96794 -0.416355 -0.275967 
4.02806 -0.43266 -0.266336 
4.08818 -0.448366 -0.256066 
4.1483 -0.463437 -0.245165 
4.20842 -0.477833 -0.233643 
4.26854 -0.491518 -0.22151 
4.32866 -0.504455 -0.20878 
4.38878 -0.51661 -0.195468 
4.4489 -0.527947 -0.181591 
4.50902 -0.538434 -0.167167 
4.56914 -0.548037 -0.152217 
4.62926 -0.556726 -0.136763 
4.68938 -0.564472 -0.120831 
4.7495 -0.571246 -0.104445 
4.80962 -0.577022 -0.087634 
4.86974 -0.581775 -0.0704273 
4.92986 -0.585483 -0.0528558 
4.98998 -0.588124 -0.0349525 
5.0501 -0.589679 -0.0167514 
5.11022 -0.590133 0.00171178 
5.17034 -0.589469 0.0203999 
5.23046 -0.587676 0.0392747 
5.29058 -0.584744 0.0582965 
5.3507 -0.580664 0.0774249 
5.41082 -0.575433 0.096618 
5.47094 -0.569046 0.115833 
5.53106 -0.561505 0.135028 
5.59118 -0.552812 0.154157 
5.6513 -0.542972 0.173176 
5.71142 -0.531992 0.19204 
5.77154 -0.519885 0.210704 
5.83166 -0.506662 0.229122 
5.89178 -0.492341 0.247249 
5.9519 -0.476939 0.265038 
6.01202 -0.46048 0.282444 
6.07214 -0.442987 0.299423 
6.13226 -0.424487 0.315928 
6.19238 -0.40501 0.331917 
6.25251 -0.384588 0.347345 
6.31263 -0.363257 0.36217 
6.37275 -0.341053 0.376351 
6.43287 -0.318018 0.389846 
6.49299 -0.294193 0.402616 
6.55311 -0.269622 0.414624 
6.61323 -0.244354 0.425833 
6.67335 -0.218437 0.436207 
6.73347 -0.191922 0.445714 
6.79359 -0.164862 0.454323 
6.85371 -0.137312 0.462003 
6.91383 -0.10933 0.468727 
6.97395 -0.0809721 0.474471 
7.03407 -0.0522992 0.47921 
7.09419 -0.0233721 0.482925 
7.15431 0.00574706 0.485597 
7.21443 0.0349951 0.48721 
7.27455 0.0643079 0.487751 
7.33467 0.0936208 0.487208 
7.39479 0.122868 0.485575 
7.45491 0.151985 0.482846 
7.51503 0.180904 0.479018 
7.57515 0.20956 0.474091 
7.63527 0.237887 0.468069 
7.69539 0.265819 0.460958 
7.75551 0.293291 0.452766 
7.81563 0.320238 0.443504 
7.87575 0.346597 0.433188 
7.93587 0.372304 0.421835 
7.99599 0.397298 0.409464 
8.05611 0.421518 0.396099 
8.11623 0.444906 0.381766 
8.17635 0.467403 0.366491 
8.23647 0.488955 0.350307 
8.29659 0.509507 0.333247 
8.35671 0.529008 0.315347 
8.41683 0.547408 0.296645 
8.47695 0.564661 0.277182 
8.53707 0.580722 0.257001 
8.59719 0.59555 0.236147 
8.65731 0.609104 0.214666 
8.71743 0.62135 0.192609 
8.77756 0.632253 0.170026 
8.83768 0.641784 0.146969 
8.8978 0.649916 0.123492 
8.95792 0.656626 0.099651 
9.01804 0.661892 0.0755021 
9.07816 0.665699 0.0511031 
9.13828 0.668033 0.0265127 
9.1984 0.668884 0.00179029 
9.25852 0.668247 -0.023004 
9.31864 0.666118 -0.0478095 
9.37876 0.662499 -0.0725655 
9.43888 0.657395 -0.097211 
9.499 0.650814 -0.121685 
9.55912 0.642768 -0.145926 
9.61924 0.633274 -0.169875 
9.67936 0.62235 -0.19347 
9.73948 0.610019 -0.216654 
9.7996 0.596308 -0.239366 
9.85972 0.581248 -0.261551 
9.91984 0.564871 -0.283151 
9.97996 0.547215 -0.304113 
10.0401 0.528318 -0.324381 
10.1002 0.508226 -0.343905 
10.1603 0.486983 -0.362634 
10.2204 0.464639 -0.38052 
10.2806 0.441247 -0.397518 
10.3407 0.41686 -0.413583 
10.4008 0.391537 -0.428674 
10.4609 0.365337 -0.442751 
10.521 0.338321 -0.455778 
10.5812 0.310555 -0.467721 
10.6413 0.282105 -0.47855 
10.7014 0.253037 -0.488234 
10.7615 0.223423 -0.49675 
10.8216 0.193332 -0.504075 
10.8818 0.162837 -0.51019 
10.9419 0.132011 -0.515078 
11.002 0.100928 -0.518726 
11.0621 0.0696639 -0.521126 
11.1222 0.038293 -0.522269 
11.1824 0.00689125 -0.522154 
11.2425 -0.0244658 -0.52078 
11.3026 -0.0557024 -0.518151 
11.3627 -0.0867434 -0.514273 
11.4228 -0.117514 -0.509156 
11.483 -0.14794 -0.502814 
11.5431 -0.177948 -0.495264 
11.6032 -0.207467 -0.486525 
11.6633 -0.236425 -0.476619 
11.7234 -0.264753 -0.465573 
11.7836 -0.292383 -0.453416 
11.8437 -0.31925 -0.440179 
11.9038 -0.34529 -0.425898 
11.9639 -0.37044 -0.410609 
12.024 -0.394642 -0.394354 
12.0842 -0.417839 -0.377174 
12.1443 -0.439976 -0.359114 
12.2044 -0.461003 -0.340223 
12.2645 -0.480869 -0.320549 
12.3246 -0.499531 -0.300145 
12.3848 -0.516945 -0.279063 
12.4449 -0.533073 -0.257359 
12.505 -0.547879 -0.23509 
12.5651 -0.56133 -0.212314 
12.6253 -0.573399 -0.189091 
12.6854 -0.584059 -0.16548 
12.7455 -0.593289 -0.141545 
12.8056 -0.601073 -0.117347 
12.8657 -0.607395 -0.0929482 
12.9259 -0.612246 -0.0684134 
12.986 -0.61562 -0.0438056 
13.0461 -0.617513 -0.0191885 
13.1062 -0.617928 0.00537446 
13.1663 -0.616869 0.0298199 
13.2265 -0.614346 0.054085 
13.2866 -0.610371 0.0781076 
13.3467 -0.604961 0.101826 
13.4068 -0.598135 0.125181 
13.4669 -0.589917 0.148112 
13.5271 -0.580335 0.170562 
13.5872 -0.56942 0.192474 
13.6473 -0.557204 0.213793 
13.7074 -0.543726 0.234467 
13.7675 -0.529026 0.254443 
13.8277 -0.513146 0.273674 
13.8878 -0.496135 0.292112 
13.9479 -0.47804 0.309712 
14.008 -0.458913 0.326432 
14.0681 -0.438808 0.342233 
14.1283 -0.417781 0.357078 
14.1884 -0.395892 0.370932 
14.2485 -0.373201 0.383764 
14.3086 -0.349769 0.395546 
14.3687 -0.325662 0.406251 
14.4289 -0.300944 0.415858 
14.489 -0.275681 0.424348 
14.5491 -0.249943 0.431703 
14.6092 -0.223796 0.437911 
14.6693 -0.197311 0.442962 
14.7295 -0.170557 0.446849 
14.7896 -0.143605 0.44957 
14.8497 -0.116524 0.451123 
14.9098 -0.0893852 0.451513 
14.9699 -0.0622574 0.450744 
15.0301 -0.0352105 0.448827 
15.0902 -0.00831299 0.445775 
15.1503 0.0183672 0.441602 
15.2104 0.0447633 0.436327 
15.2705 0.0708098 0.429972 
15.3307 0.0964423 0.422562 
15.3908 0.121598 0.414124 
15.4509 0.146217 0.404687 
15.511 0.170239 0.394284 
15.5711 0.193607 0.382951 
15.6313 0.216267 0.370724 
15.6914 0.238166 0.357644 
15.7515 0.259254 0.343752 
15.8116 0.279483 0.329093 
15.8717 0.29881 0.313711 
15.9319 0.317191 0.297655 
15.992 0.334587 0.280974 
16.0521 0.350964 0.263717 
16.1122 0.366286 0.245938 
16.1723 0.380526 0.227688 
16.2325 0.393655 0.209022 
16.2926 0.405652 0.189995 
16.3527 0.416494 0.170661 
16.4128 0.426167 0.151077 
16.4729 0.434656 0.131298 
16.5331 0.441951 0.111382 
16.5932 0.448047 0.0913835 
16.6533 0.452939 0.0713595 
16.7134 0.456628 0.0513654 
16.7735 0.459117 0.0314564 
16.8337 0.460413 0.0116872 
16.8938 0.460526 -0.0078888 
16.9539 0.459469 -0.0272187 
17.014 0.457259 -0.046251 
17.0741 0.453915 -0.0649354 
17.1343 0.449459 -0.083223 
17.1944 0.443917 -0.101067 
17.2545 0.437317 -0.11842 
17.3146 0.429689 -0.135241 
17.3747 0.421067 -0.151485 
17.4349 0.411487 -0.167115 
17.495 0.400986 -0.182091 
17.5551 0.389606 -0.196379 
17.6152 0.377388 -0.209946 
17.6754 0.364377 -0.22276 
17.7355 0.350619 -0.234794 
17.7956 0.336161 -0.246021 
17.8557 0.321054 -0.256419 
17.9158 0.305346 -0.265968 
17.976 0.289091 -0.27465 
18.0361 0.27234 -0.282449 
18.0962 0.255147 -0.289354 
18.1563 0.237566 -0.295356 
18.2164 0.219651 -0.300448 
18.2766 0.201458 -0.304625 
18.3367 0.183041 -0.307888 
18.3968 0.164456 -0.310238 
18.4569 0.145756 -0.31168 
18.517 0.126997 -0.31222 
18.5772 0.108233 -0.311868 
18.6373 0.0895158 -0.310638 
18.6974 0.0708988 -0.308545 
18.7575 0.0524332 -0.305605 
18.8176 0.0341693 -0.301838 
18.8778 0.0161562 -0.297268 
18.9379 -0.00155869 -0.291918 
18.998 -0.0189291 -0.285816 
19.0581 -0.0359108 -0.278989 
19.1182 -0.052461 -0.271468 
19.1784 -0.068539 -0.263287 
19.2385 -0.0841062 -0.254479 
19.2986 -0.0991258 -0.245079 
19.3587 -0.113564 -0.235126 
19.4188 -0.127387 -0.224657 
19.479 -0.140567 -0.213712 
19.5391 -0.153075 -0.202333 
19.5992 -0.164888 -0.19056 
19.6593 -0.175981 -0.178436 
19.7194 -0.186337 -0.166005 
19.7796 -0.195937 -0.153309 
19.8397 -0.204766 -0.140393 
19.8998 -0.212814 -0.127301 
19.9599 -0.22007 -0.114077 
20.02 -0.226529 -0.100765 
20.0802 -0.232186 -0.0874093 
20.1403 -0.237039 -0.0740528 
20.2004 -0.241091 -0.0607389 
20.2605 -0.244344 -0.0475097 
20.3206 -0.246806 -0.0344068 
20.3808 -0.248484 -0.0214709 
20.4409 -0.249391 -0.00874152 
20.501 -0.24954 0.00374282 
20.5611 -0.248947 0.015945 
20.6212 -0.24763 0.0278291 
20.6814 -0.245608 0.039361 
20.7415 -0.242904 0.050508 
20.8016 -0.239543 0.0612389 
20.8617 -0.23555 0.0715246 
20.9218 -0.230952 0.0813377 
20.982 -0.22578 0.0906527 
21.0421 -0.220063 0.0994463 
21.1022 -0.213833 0.107697 
21.1623 -0.207125 0.115386 
21.2224 -0.199971 0.122495 
21.2826 -0.192408 0.12901 
21.3427 -0.184471 0.134919 
21.4028 -0.176197 0.14021 
21.4629 -0.167624 0.144877 
21.523 -0.15879 0.148912 
21.5832 -0.149732 0.152313 
21.6433 -0.140488 0.155078 
21.7034 -0.131098 0.157208 
21.7635 -0.121598 0.158707 
21.8236 -0.112028 0.159579 
21.8838 -0.102423 0.159834 
21.9439 -0.0928212 0.159479 
22.004 -0.0832589 0.158528 
22.0641 -0.0737714 0.156994 
22.1242 -0.0643932 0.154894 
22.1844 -0.0551579 0.152243 
22.2445 -0.046098 0.149063 
22.3046 -0.0372447 0.145375 
22.3647 -0.0286278 0.1412 
22.4248 -0.0202759 0.136565 
22.485 -0.0122159 0.131494 
22.5451 -0.00447323 0.126015 
22.6052 0.00292851 0.120156 
22.6653 0.00996733 0.113947 
22.7255 0.0166231 0.107418 
22.7856 0.0228775 0.100601 
22.8457 0.0287142 0.0935274 
22.9058 0.0341188 0.086231 
22.9659 0.0390789 0.0787448 
23.0261 0.043584 0.0711025 
23.0862 0.0476258 0.0633383 
23.1463 0.0511981 0.0554862 
23.2064 0.0542964 0.0475804 
23.2665 0.0569188 0.0396552 
23.3267 0.0590649 0.0317442 
23.3868 0.0607367 0.0238812 
23.4469 0.061938 0.016099 
23.507 0.0626747 0.00843017 
23.5671 0.0629545 0.000906413 
23.6273 0.0627872 -0.00644136 
23.6874 0.0621842 -0.0135832 
23.7475 0.0611587 -0.0204901 
23.8076 0.0597257 -0.0271343 
23.8677 0.0579018 -0.0334893 
23.9279 0.0557052 -0.0395299 
23.988 0.0531555 -0.0452322 
24.0481 0.0502737 -0.050574 
24.1082 0.0470821 -0.0555345 
24.1683 0.0436042 -0.0600947 
24.2285 0.0398647 -0.0642373 
24.2886 0.035889 -0.0679467 
24.3487 0.0317037 -0.0712091 
24.4088 0.027336 -0.0740128 
24.4689 0.0228137 -0.0763477 
24.5291 0.0181654 -0.0782058 
24.5892 0.0134199 -0.0795812 
24.6493 0.00860631 -0.0804698 
24.7094 0.00375398 -0.0808694 
24.7695 -0.00110767 -0.0807801 
24.8297 -0.00594929 -0.0802038 
24.8898 -0.0107417 -0.0791443 
24.9499 -0.0154561 -0.0776076 
25.01 -0.0200639 -0.0756015 
25.0701 -0.0245372 -0.0731357 
25.1303 -0.0288488 -0.0702217 
25.1904 -0.032972 -0.066873 
25.2505 -0.0368812 -0.0631048 
25.3106 -0.0405517 -0.0589338 
25.3707 -0.0439597 -0.0543786 
25.4309 -0.0470829 -0.0494593 
25.491 -0.0498999 -0.0441975 
25.5511 -0.0523908 -0.0386161 
25.6112 -0.0545372 -0.0327395 
25.6713 -0.056322 -0.0265931 
25.7315 -0.0577299 -0.0202037 
25.7916 -0.058747 -0.0135989 
25.8517 -0.0593613 -0.00680744 
25.9118 -0.0595624 0.000141286 
25.9719 -0.0593418 0.00721709 
26.0321 -0.0586927 0.0143892 
26.0922 -0.0576103 0.0216264 
26.1523 -0.0560916 0.028897 
26.2124 -0.0541357 0.0361692 
26.2725 -0.0517433 0.0434109 
26.3327 -0.0489172 0.0505902 
26.3928 -0.0456622 0.0576752 
26.4529 -0.0419848 0.0646341 
26.513 -0.0378937 0.0714358 
26.5731 -0.0333991 0.0780493 
26.6333 -0.0285134 0.0844443 
26.6934 -0.0232505 0.0905914 
26.7535 -0.0176262 0.0964618 
26.8136 -0.0116579 0.102028 
26.8737 -0.00536494 0.107262 
26.9339 0.00123214 0.112139 
26.994 0.00811111 0.116635 
27.0541 0.0152483 0.120727 
27.1142 0.0226188 0.124392 
27.1743 0.0301963 0.12761 
27.2345 0.0379534 0.130364 
27.2946 0.0458616 0.132635 
27.3547 0.0538915 0.134409 
27.4148 0.0620128 0.135672 
27.4749 0.0701944 0.136413 
27.5351 0.0784045 0.136621 
27.5952 0.0866109 0.13629 
27.6553 0.0947811 0.135413 
27.7154 0.102882 0.133986 
27.7756 0.110881 0.132008 
27.8357 0.118744 0.129478 
27.8958 0.126438 0.1264 
27.9559 0.133931 0.122777 
28.016 0.14119 0.118617 
28.0762 0.148183 0.113926 
28.1363 0.154878 0.108717 
28.1964 0.161245 0.103001 
28.2565 0.167253 0.096792 
28.3166 0.172874 0.0901075 
28.3768 0.178079 0.0829652 
28.4369 0.182841 0.075385 
28.497 0.187135 0.0673887 
28.5571 0.190936 0.0589997 
28.6172 0.194221 0.0502431 
28.6774 0.19697 0.0411454 
28.7375 0.199162 0.0317346 
28.7976 0.20078 0.02204 
28.8577 0.201807 0.0120923 
28.9178 0.20223 0.00192322 
28.978 0.202035 -0.00843441 
29.0381 0.201213 -0.0189468 
29.0982 0.199754 -0.0295794 
29.1583 0.197654 -0.0402969 
29.2184 0.194908 -0.0510633 
29.2786 0.191514 -0.0618423 
29.3387 0.187473 -0.0725971 
29.3988 0.182786 -0.0832906 
29.4589 0.17746 -0.0938859 
29.519 0.1715 -0.104346 
29.5792 0.164916 -0.114634 
29.6393 0.157721 -0.124712 
29.6994 0.149926 -0.134546 
29.7595 0.141548 -0.144099 
29.8196 0.132606 -0.153336 
29.8798 0.123118 -0.162222 
29.9399 0.113108 -0.170726 
30 0.102598 -0.178813 
