MULTI_REAL_FUNCTION
Spherical pendulum - both angles
2
Theta
Phi
x1: 0
x2: 20
NumPoints: 1000
0 1.5708 0 
0.02002 1.67085 -0.0713116 
0.04004 1.76648 -0.144027 
0.0600601 1.85721 -0.21947 
0.0800801 1.94255 -0.298921 
0.1001 2.02195 -0.383633 
0.12012 2.09478 -0.47482 
0.14014 2.1603 -0.573581 
0.16016 2.21765 -0.680779 
0.18018 2.26587 -0.79685 
0.2002 2.30393 -0.921549 
0.22022 2.33085 -1.05373 
0.24024 2.3458 -1.19125 
0.26026 2.34829 -1.33112 
0.28028 2.33822 -1.46996 
0.3003 2.31595 -1.60456 
0.32032 2.28218 -1.73241 
0.34034 2.23785 -1.85197 
0.36036 2.18399 -1.96265 
0.38038 2.12158 -2.06466 
0.4004 2.05155 -2.15872 
0.42042 1.97466 -2.24585 
0.44044 1.8916 -2.32723 
0.46046 1.80294 -2.4041 
0.48048 1.70919 -2.47774 
0.500501 1.61082 -2.54944 
0.520521 1.50833 -2.62058 
0.540541 1.40224 -2.69267 
0.560561 1.29317 -2.76748 
0.580581 1.1819 -2.84717 
0.600601 1.06944 -2.93457 
0.620621 0.957171 -3.0335 
0.640641 0.847076 -3.1493 
0.660661 0.742115 -3.28955 
0.680681 0.646764 -3.46425 
0.700701 0.567686 -3.68448 
0.720721 0.51396 -3.9555 
0.740741 0.494863 -4.26341 
0.760761 0.514597 -4.5709 
0.780781 0.568818 -4.84121 
0.800801 0.648241 -5.06058 
0.820821 0.743802 -5.23461 
0.840841 0.848867 -5.37438 
0.860861 0.95901 -5.48987 
0.880881 1.0713 -5.58855 
0.900901 1.18376 -5.67579 
0.920921 1.295 -5.75538 
0.940941 1.40403 -5.83013 
0.960961 1.51006 -5.90219 
0.980981 1.61249 -5.97333 
1.001 1.71078 -6.04505 
1.02102 1.80445 -6.11874 
1.04104 1.89302 -6.19567 
1.06106 1.97599 -6.27714 
1.08108 2.05276 -6.36438 
1.1011 2.12268 -6.45856 
1.12112 2.18495 -6.56071 
1.14114 2.23867 -6.67154 
1.16116 2.28283 -6.79124 
1.18118 2.31642 -6.91921 
1.2012 2.33849 -7.0539 
1.22122 2.34835 -7.19279 
1.24124 2.34566 -7.33265 
1.26126 2.3305 -7.47011 
1.28128 2.30339 -7.60218 
1.3013 2.26515 -7.72674 
1.32132 2.21677 -7.84266 
1.34134 2.15928 -7.94972 
1.36136 2.09363 -8.04834 
1.38138 2.02068 -8.13941 
1.4014 1.94118 -8.22403 
1.42142 1.85575 -8.3034 
1.44144 1.76493 -8.37879 
1.46146 1.66923 -8.45147 
1.48148 1.5691 -8.52277 
1.5015 1.46506 -8.5941 
1.52152 1.35767 -8.66708 
1.54154 1.24759 -8.74361 
1.56156 1.13568 -8.82608 
1.58158 1.0231 -8.91769 
1.6016 0.911449 -9.02282 
1.62162 0.80304 -9.14762 
1.64164 0.701393 -9.3007 
1.66166 0.61177 -9.4929 
1.68168 0.541925 -9.73411 
1.7017 0.501489 -10.0236 
1.72172 0.498361 -10.3366 
1.74174 0.533217 -10.6321 
1.76176 0.599023 -10.8817 
1.78178 0.686056 -11.0812 
1.8018 0.786205 -11.2397 
1.82182 0.893799 -11.3684 
1.84184 1.00511 -11.4762 
1.86186 1.11766 -11.5697 
1.88188 1.22976 -11.6534 
1.9019 1.3402 -11.7307 
1.92192 1.44808 -11.8041 
1.94194 1.55269 -11.8756 
1.96196 1.65348 -11.9468 
1.98198 1.74992 -12.0191 
2.002 1.84156 -12.094 
2.02202 1.92789 -12.1726 
2.04204 2.00838 -12.2563 
2.06206 2.08242 -12.3463 
2.08208 2.14929 -12.4436 
2.1021 2.20815 -12.5493 
2.12212 2.25806 -12.6638 
2.14214 2.29799 -12.787 
2.16216 2.32695 -12.918 
2.18218 2.34406 -13.0548 
2.2022 2.34877 -13.1945 
2.22222 2.3409 -13.3338 
2.24224 2.32074 -13.4693 
2.26226 2.28895 -13.5985 
2.28228 2.24641 -13.7196 
2.3023 2.19415 -13.8318 
2.32232 2.13319 -13.9353 
2.34234 2.06444 -14.0307 
2.36236 1.98871 -14.119 
2.38238 1.9067 -14.2013 
2.4024 1.81899 -14.2789 
2.42242 1.7261 -14.353 
2.44244 1.62852 -14.425 
2.46246 1.52672 -14.4961 
2.48248 1.42123 -14.5679 
2.5025 1.31263 -14.6421 
2.52252 1.20168 -14.7207 
2.54254 1.08934 -14.8065 
2.56256 0.976915 -14.9031 
2.58258 0.866264 -15.0154 
2.6026 0.760125 -15.1507 
2.62262 0.66265 -15.3185 
2.64264 0.580101 -15.5299 
2.66266 0.521163 -15.7923 
2.68268 0.495436 -16.0959 
2.7027 0.508373 -16.4066 
2.72272 0.557119 -16.6852 
2.74274 0.632799 -16.9135 
2.76276 0.726077 -17.0948 
2.78278 0.829831 -17.2398 
2.8028 0.939322 -17.359 
2.82282 1.0514 -17.4602 
2.84284 1.16394 -17.5491 
2.86286 1.27548 -17.6298 
2.88288 1.38496 -17.7053 
2.9029 1.49157 -17.7777 
2.92292 1.59467 -17.8489 
2.94294 1.69373 -17.9204 
2.96296 1.78826 -17.9936 
2.98298 1.87777 -18.0699 
3.003 1.96176 -18.1505 
3.02302 2.03967 -18.2366 
3.04304 2.11086 -18.3295 
3.06306 2.17454 -18.4301 
3.08308 2.22984 -18.5394 
3.1031 2.27577 -18.6576 
3.12312 2.3113 -18.7842 
3.14314 2.33546 -18.9178 
3.16316 2.34752 -19.0562 
3.18318 2.34705 -19.1961 
3.2032 2.33407 -19.3342 
3.22322 2.30902 -19.4674 
3.24324 2.27268 -19.5934 
3.26326 2.22601 -19.7109 
3.28328 2.17006 -19.8195 
3.3033 2.10578 -19.9196 
3.32332 2.03407 -20.0119 
3.34334 1.95568 -20.0976 
3.36336 1.87125 -20.1778 
3.38338 1.78135 -20.2538 
3.4034 1.68647 -20.3269 
3.42342 1.58709 -20.3983 
3.44344 1.48371 -20.4695 
3.46346 1.37686 -20.5421 
3.48348 1.2672 -20.6178 
3.5035 1.15554 -20.6991 
3.52352 1.04298 -20.7888 
3.54354 0.93102 -20.8911 
3.56356 0.821817 -21.0119 
3.58358 0.718648 -21.1592 
3.6036 0.626427 -21.3437 
3.62362 0.552411 -21.5758 
3.64364 0.506088 -21.8578 
3.66366 0.496046 -22.1695 
3.68368 0.524533 -22.4709 
3.7037 0.585579 -22.7295 
3.72372 0.669529 -22.9373 
3.74374 0.767829 -23.1023 
3.76376 0.874427 -23.2355 
3.78378 0.985292 -23.3465 
3.8038 1.09777 -23.4421 
3.82382 1.21004 -23.5272 
3.84384 1.32085 -23.6055 
3.86386 1.42923 -23.6794 
3.88388 1.53447 -23.7511 
3.9039 1.63597 -23.8222 
3.92392 1.73322 -23.8943 
3.94394 1.82574 -23.9686 
3.96396 1.91304 -24.0465 
3.98398 1.99461 -24.1292 
4.004 2.06984 -24.218 
4.02402 2.13803 -24.314 
4.04404 2.19838 -24.4181 
4.06406 2.24994 -24.531 
4.08408 2.29171 -24.6528 
4.1041 2.32267 -24.7825 
4.12412 2.34193 -24.9184 
4.14414 2.34885 -25.0579 
4.16416 2.3432 -25.1974 
4.18418 2.32518 -25.3339 
4.2042 2.29537 -25.4643 
4.22422 2.25466 -25.5869 
4.24424 2.20405 -25.7008 
4.26426 2.14455 -25.8058 
4.28428 2.07712 -25.9025 
4.3043 2.00257 -25.992 
4.32432 1.92162 -26.0753 
4.34434 1.83488 -26.1536 
4.36436 1.74287 -26.2282 
4.38438 1.64608 -26.3005 
4.4044 1.54499 -26.3716 
4.42442 1.44011 -26.4432 
4.44444 1.33201 -26.5168 
4.46446 1.22142 -26.5945 
4.48448 1.10924 -26.6788 
4.5045 0.996713 -26.7731 
4.52452 0.885586 -26.8823 
4.54454 0.778386 -27.0128 
4.56456 0.679005 -27.1741 
4.58458 0.593246 -27.3771 
4.6046 0.529417 -27.6304 
4.62462 0.497234 -27.9286 
4.64464 0.50329 -28.2412 
4.66466 0.546258 -28.5276 
4.68468 0.617907 -28.765 
4.7047 0.708654 -28.9538 
4.72472 0.810972 -29.1044 
4.74474 0.91972 -29.2275 
4.76476 1.03151 -29.3314 
4.78478 1.14409 -29.4222 
4.8048 1.2559 -29.5042 
4.82482 1.3658 -29.5803 
4.84484 1.47297 -29.6531 
4.86486 1.57674 -29.7244 
4.88488 1.67654 -29.7958 
4.9049 1.7719 -29.8686 
4.92492 1.86234 -29.9442 
4.94494 1.94734 -30.024 
4.96496 2.02638 -30.109 
4.98498 2.0988 -30.2006 
5.00501 2.16387 -30.2999 
5.02503 2.22072 -30.4076 
5.04505 2.26838 -30.5242 
5.06507 2.30582 -30.6493 
5.08509 2.33206 -30.7819 
5.10511 2.34629 -30.9196 
5.12513 2.34805 -31.0595 
5.14515 2.33726 -31.1982 
5.16517 2.31429 -31.3325 
5.18519 2.27988 -31.4599 
5.20521 2.23497 -31.5789 
5.22523 2.18058 -31.6891 
5.24525 2.1177 -31.7906 
5.26527 2.04725 -31.8842 
5.28529 1.96999 -31.971 
5.30531 1.88658 -32.0521 
5.32533 1.79761 -32.1287 
5.34535 1.70358 -32.2022 
5.36537 1.60496 -32.2739 
5.38539 1.50224 -32.345 
5.40541 1.39596 -32.4172 
5.42543 1.28674 -32.4922 
5.44545 1.17537 -32.5723 
5.46547 1.06287 -32.6602 
5.48549 0.950676 -32.76 
5.50551 0.840803 -32.877 
5.52553 0.736259 -33.019 
5.54555 0.641631 -33.196 
5.56557 0.563765 -33.4191 
5.58559 0.51183 -33.693 
5.60561 0.494964 -34.002 
5.62563 0.516874 -34.3083 
5.64565 0.572845 -34.5756 
5.66567 0.653444 -34.7921 
5.68569 0.749712 -34.9639 
5.70571 0.855184 -35.102 
5.72573 0.965521 -35.2163 
5.74575 1.07786 -35.3142 
5.76577 1.19028 -35.4009 
5.78579 1.30142 -35.4801 
5.80581 1.41029 -35.5546 
5.82583 1.51613 -35.6266 
5.84585 1.61833 -35.6977 
5.86587 1.71637 -35.7696 
5.88589 1.80975 -35.8434 
5.90591 1.89801 -35.9206 
5.92593 1.98064 -36.0023 
5.94595 2.05703 -36.0899 
5.96597 2.12653 -36.1846 
5.98599 2.18832 -36.2872 
6.00601 2.24151 -36.3985 
6.02603 2.28509 -36.5187 
6.04605 2.31803 -36.6472 
6.06607 2.33941 -36.7822 
6.08609 2.34854 -36.9212 
6.10611 2.34511 -37.061 
6.12613 2.32924 -37.1982 
6.14615 2.30146 -37.3299 
6.16617 2.2626 -37.454 
6.18619 2.21366 -37.5694 
6.20621 2.15567 -37.676 
6.22623 2.08957 -37.7741 
6.24625 2.01623 -37.8648 
6.26627 1.93636 -37.9491 
6.28629 1.8506 -38.0282 
6.30631 1.75949 -38.1034 
6.32633 1.66351 -38.1759 
6.34635 1.56314 -38.2472 
6.36637 1.45889 -38.3186 
6.38639 1.35132 -38.3917 
6.40641 1.24111 -38.4685 
6.42643 1.12913 -38.5514 
6.44645 1.01655 -38.6437 
6.46647 0.905021 -38.7498 
6.48649 0.796888 -38.8759 
6.50651 0.69577 -39.031 
6.52653 0.607075 -39.2258 
6.54655 0.538667 -39.47 
6.56657 0.500245 -39.7618 
6.58659 0.499368 -40.075 
6.60661 0.536299 -40.3683 
6.62663 0.603599 -40.6149 
6.64665 0.691602 -40.8117 
6.66667 0.792308 -40.9682 
6.68669 0.9002 -41.0955 
6.70671 1.01165 -41.2023 
6.72673 1.12422 -41.295 
6.74675 1.23625 -41.3783 
6.76677 1.34656 -41.4553 
6.78679 1.45427 -41.5285 
6.80681 1.55867 -41.6 
6.82683 1.65922 -41.6712 
6.84685 1.7554 -41.7437 
6.86687 1.84674 -41.8187 
6.88689 1.93274 -41.8976 
6.90691 2.01287 -41.9817 
6.92693 2.08652 -42.072 
6.94695 2.15295 -42.1698 
6.96697 2.21132 -42.276 
6.98699 2.26067 -42.391 
7.00701 2.29999 -42.5147 
7.02703 2.32827 -42.6461 
7.04705 2.34467 -42.7832 
7.06707 2.34865 -42.9229 
7.08709 2.34006 -43.0621 
7.10711 2.31921 -43.1973 
7.12713 2.28675 -43.3261 
7.14715 2.24362 -43.4466 
7.16717 2.19083 -43.5584 
7.18719 2.12939 -43.6614 
7.20721 2.06021 -43.7563 
7.22723 1.9841 -43.8442 
7.24725 1.90174 -43.9262 
7.26727 1.81371 -44.0036 
7.28729 1.72054 -44.0775 
7.30731 1.6227 -44.1494 
7.32733 1.52067 -44.2205 
7.34735 1.41498 -44.2924 
7.36737 1.30623 -44.3668 
7.38739 1.19516 -44.4458 
7.40741 1.08278 -44.5321 
7.42743 0.9704 -44.6294 
7.44745 0.859932 -44.7429 
7.46747 0.754168 -44.8797 
7.48749 0.657361 -45.0498 
7.50751 0.575924 -45.2641 
7.52753 0.518685 -45.5294 
7.54755 0.495104 -45.8345 
7.56757 0.510293 -46.1443 
7.58759 0.560881 -46.4201 
7.60761 0.637838 -46.6456 
7.62763 0.731878 -46.8244 
7.64765 0.836094 -46.9676 
7.66767 0.945813 -47.0856 
7.68769 1.05796 -47.1859 
7.70771 1.17048 -47.2743 
7.72773 1.28192 -47.3546 
7.74775 1.39126 -47.4298 
7.76777 1.49768 -47.5021 
7.78779 1.60056 -47.5733 
7.80781 1.69937 -47.6449 
7.82783 1.79361 -47.7182 
7.84785 1.88281 -47.7947 
7.86787 1.96647 -47.8756 
7.88789 2.04401 -47.9621 
7.90791 2.11478 -48.0554 
7.92793 2.178 -48.1565 
7.94795 2.23278 -48.2663 
7.96797 2.27813 -48.385 
7.98799 2.31302 -48.512 
8.00801 2.3365 -48.6461 
8.02803 2.34783 -48.7846 
8.04805 2.34663 -48.9245 
8.06807 2.33293 -49.0624 
8.08809 2.3072 -49.1953 
8.10811 2.27023 -49.3208 
8.12813 2.223 -49.4378 
8.14815 2.16653 -49.5459 
8.16817 2.1018 -49.6455 
8.18819 2.02968 -49.7374 
8.20821 1.95092 -49.8227 
8.22823 1.86616 -49.9026 
8.24825 1.77596 -49.9784 
8.26827 1.6808 -50.0513 
8.28829 1.58118 -50.1227 
8.30831 1.47757 -50.194 
8.32833 1.37054 -50.2667 
8.34835 1.26074 -50.3427 
8.36837 1.149 -50.4243 
8.38839 1.03642 -50.5146 
8.40841 0.924561 -50.6179 
8.42843 0.815605 -50.7399 
8.44845 0.712915 -50.8891 
8.46847 0.621535 -51.0761 
8.48849 0.548857 -51.3113 
8.50851 0.504441 -51.5957 
8.52853 0.496664 -51.908 
8.54855 0.527293 -52.2075 
8.56857 0.589938 -52.4632 
8.58859 0.67493 -52.6683 
8.60861 0.773865 -52.8311 
8.62863 0.880793 -52.9628 
8.64865 0.99182 -53.0727 
8.66867 1.10433 -53.1676 
8.68869 1.21655 -53.2522 
8.70871 1.32724 -53.3301 
8.72873 1.43546 -53.4039 
8.74875 1.54049 -53.4755 
8.76877 1.64176 -53.5467 
8.78879 1.73874 -53.6188 
8.80881 1.83097 -53.6933 
8.82883 1.91795 -53.7715 
8.84885 1.99917 -53.8545 
8.86887 2.07401 -53.9437 
8.88889 2.14177 -54.0401 
8.90891 2.20163 -54.1447 
8.92893 2.25265 -54.2582 
8.94895 2.29382 -54.3804 
8.96897 2.32412 -54.5105 
8.98899 2.34267 -54.6468 
9.00901 2.34887 -54.7863 
9.02903 2.34249 -54.9258 
9.04905 2.32376 -55.0619 
9.06907 2.29329 -55.192 
9.08909 2.25197 -55.3141 
9.10911 2.20082 -55.4274 
9.12913 2.14083 -55.5319 
9.14915 2.07296 -55.6282 
9.16917 1.99802 -55.7173 
9.18919 1.91672 -55.8002 
9.20921 1.82966 -55.8783 
9.22923 1.73736 -55.9528 
9.24925 1.64031 -56.0249 
9.26927 1.53898 -56.096 
9.28929 1.4339 -56.1677 
9.30931 1.32564 -56.2415 
9.32933 1.21492 -56.3195 
9.34935 1.10268 -56.4043 
9.36937 0.990183 -56.4993 
9.38939 0.879204 -56.6095 
9.40941 0.772355 -56.7416 
9.42943 0.673566 -56.9049 
9.44945 0.588833 -57.1107 
9.46947 0.526587 -57.367 
9.48949 0.496497 -57.6671 
9.50951 0.504825 -57.9793 
9.52953 0.549743 -58.263 
9.54955 0.622752 -58.4975 
9.56957 0.714364 -58.6838 
9.58959 0.817171 -58.8325 
9.60961 0.926169 -58.9543 
9.62963 1.03807 -59.0573 
9.64965 1.15064 -59.1475 
9.66967 1.26236 -59.229 
9.68969 1.37213 -59.3049 
9.70971 1.47911 -59.3776 
9.72973 1.58266 -59.4488 
9.74975 1.68223 -59.5202 
9.76977 1.77731 -59.5932 
9.78979 1.86744 -59.669 
9.80981 1.95211 -59.749 
9.82983 2.03078 -59.8344 
9.84985 2.1028 -59.9265 
9.86987 2.16742 -60.0262 
9.88989 2.22376 -60.1344 
9.90991 2.27085 -60.2515 
9.92993 2.30766 -60.3771 
9.94995 2.33322 -60.5101 
9.96997 2.34674 -60.648 
9.98999 2.34776 -60.788 
10.01 2.33624 -60.9265 
10.03 2.31259 -61.0604 
10.0501 2.27754 -61.1873 
10.0701 2.23205 -61.3059 
10.0901 2.17714 -61.4155 
10.1101 2.1138 -61.5166 
10.1301 2.04293 -61.6097 
10.1502 1.96529 -61.6961 
10.1702 1.88155 -61.7769 
10.1902 1.79227 -61.8534 
10.2102 1.69795 -61.9267 
10.2302 1.59908 -61.9983 
10.2503 1.49615 -62.0694 
10.2703 1.38968 -62.1418 
10.2903 1.28031 -62.217 
10.3103 1.16884 -62.2974 
10.3303 1.05631 -62.386 
10.3504 0.94419 -62.4866 
10.3704 0.834513 -62.6048 
10.3904 0.730408 -62.7485 
10.4104 0.636565 -62.9279 
10.4304 0.55993 -63.154 
10.4505 0.509811 -63.4306 
10.4705 0.495169 -63.7406 
10.4905 0.519292 -64.0454 
10.5105 0.576963 -64.3099 
10.5305 0.658698 -64.5235 
10.5506 0.755653 -64.693 
10.5706 0.861507 -64.8295 
10.5906 0.972028 -64.9426 
10.6106 1.08442 -65.0398 
10.6306 1.1968 -65.1259 
10.6507 1.30783 -65.2048 
10.6707 1.41655 -65.2792 
10.6907 1.52219 -65.351 
10.7107 1.62416 -65.4222 
10.7307 1.72194 -65.4941 
10.7508 1.81504 -65.568 
10.7708 1.90299 -65.6455 
10.7908 1.98526 -65.7275 
10.8108 2.06128 -65.8155 
10.8308 2.13035 -65.9106 
10.8509 2.19167 -66.0137 
10.8709 2.24432 -66.1256 
10.8909 2.28731 -66.2463 
10.9109 2.3196 -66.3751 
10.9309 2.34028 -66.5105 
10.951 2.34868 -66.6496 
10.971 2.34453 -66.7894 
10.991 2.32794 -66.9264 
11.011 2.29949 -67.0576 
11.031 2.26002 -67.1812 
11.0511 2.21053 -67.2961 
11.0711 2.15203 -67.4022 
11.0911 2.08549 -67.4999 
11.1111 2.01175 -67.5901 
11.1311 1.93152 -67.6741 
11.1512 1.84544 -67.7529 
11.1712 1.75403 -67.8279 
11.1912 1.65778 -67.9004 
11.2112 1.55718 -67.9716 
11.2312 1.45271 -68.043 
11.2513 1.34497 -68.1163 
11.2713 1.23462 -68.1934 
11.2913 1.12257 -68.2768 
11.3113 1.01001 -68.3697 
11.3313 0.8986 -68.4767 
11.3514 0.790775 -68.6044 
11.3714 0.69021 -68.7614 
11.3914 0.602441 -68.9589 
11.4114 0.535514 -69.2061 
11.4314 0.499096 -69.5001 
11.4515 0.500541 -69.8132 
11.4715 0.539478 -70.1043 
11.4915 0.608251 -70.3479 
11.5115 0.697178 -70.5421 
11.5315 0.798447 -70.6966 
11.5516 0.906626 -70.8225 
11.5716 1.01819 -70.9283 
11.5916 1.13077 -71.0204 
11.6116 1.24273 -71.1032 
11.6316 1.35291 -71.1799 
11.6517 1.46044 -71.253 
11.6717 1.56464 -71.3244 
11.6917 1.66495 -71.3956 
11.7117 1.76086 -71.4682 
11.7317 1.85189 -71.5435 
11.7518 1.93757 -71.6227 
11.7718 2.01735 -71.707 
11.7918 2.09059 -71.7978 
11.8118 2.15658 -71.8961 
11.8318 2.21445 -72.0027 
11.8519 2.26325 -72.1183 
11.8719 2.30195 -72.2425 
11.8919 2.32956 -72.3742 
11.9119 2.34525 -72.5115 
11.9319 2.3485 -72.6513 
11.952 2.33918 -72.7903 
11.972 2.31762 -72.9253 
11.992 2.28452 -73.0536 
12.012 2.2408 -73.1737 
12.032 2.18748 -73.2849 
12.0521 2.12556 -73.3874 
12.0721 2.05596 -73.4819 
12.0921 1.97947 -73.5694 
12.1121 1.89676 -73.6511 
12.1321 1.80843 -73.7282 
12.1522 1.71497 -73.802 
12.1722 1.61687 -73.8738 
12.1922 1.51461 -73.9449 
12.2122 1.40872 -74.0169 
12.2322 1.29981 -74.0915 
12.2523 1.18865 -74.1708 
12.2723 1.07622 -74.2577 
12.2923 0.963892 -74.3558 
12.3123 0.853608 -74.4704 
12.3323 0.748237 -74.6089 
12.3524 0.652127 -74.7812 
12.3724 0.571828 -74.9984 
12.3924 0.516307 -75.2666 
12.4124 0.494915 -75.5731 
12.4324 0.512345 -75.8819 
12.4525 0.564739 -76.155 
12.4725 0.642919 -76.3774 
12.4925 0.73773 -76.5539 
12.5125 0.842372 -76.6954 
12.5325 0.952295 -76.8121 
12.5526 1.06452 -76.9116 
12.5726 1.17701 -76.9994 
12.5926 1.28836 -77.0794 
12.6126 1.39754 -77.1544 
12.6326 1.50377 -77.2265 
12.6527 1.60643 -77.2977 
12.6727 1.70499 -77.3693 
12.6927 1.79895 -77.4429 
12.7127 1.88784 -77.5196 
12.7327 1.97116 -77.6007 
12.7528 2.04833 -77.6876 
12.7728 2.11868 -77.7813 
12.7928 2.18143 -77.883 
12.8128 2.23569 -77.9933 
12.8328 2.28046 -78.1124 
12.8529 2.31471 -78.2399 
12.8729 2.3375 -78.3743 
12.8929 2.34811 -78.513 
12.9129 2.34618 -78.6529 
12.9329 2.33176 -78.7906 
12.953 2.30535 -78.9231 
12.973 2.26775 -79.0481 
12.993 2.21996 -79.1646 
13.013 2.16298 -79.2722 
13.033 2.0978 -79.3713 
13.0531 2.02527 -79.4628 
13.0731 1.94614 -79.5477 
13.0931 1.86105 -79.6274 
13.1131 1.77055 -79.703 
13.1331 1.67512 -79.7758 
13.1532 1.57525 -79.8471 
13.1732 1.47143 -79.9184 
13.1932 1.36422 -79.9913 
13.2132 1.25427 -80.0675 
13.2332 1.14245 -80.1495 
13.2533 1.02987 -80.2405 
13.2733 0.91811 -80.3447 
13.2933 0.809416 -80.4681 
13.3133 0.707221 -80.6191 
13.3333 0.616703 -80.8086 
13.3534 0.545399 -81.0468 
13.3734 0.502922 -81.3338 
13.3934 0.497424 -81.6465 
13.4134 0.530153 -81.9441 
13.4334 0.594367 -82.1968 
13.4535 0.680377 -82.3991 
13.4735 0.779925 -82.5598 
13.4935 0.887179 -82.69 
13.5135 0.998351 -82.7988 
13.5335 1.11088 -82.893 
13.5536 1.22305 -82.9772 
13.5736 1.33361 -83.0548 
13.5936 1.44167 -83.1284 
13.6136 1.5465 -83.1999 
13.6336 1.64753 -83.2711 
13.6537 1.74425 -83.3434 
13.6737 1.83618 -83.418 
13.6937 1.92285 -83.4964 
13.7137 2.0037 -83.5798 
13.7337 2.07815 -83.6693 
13.7538 2.14548 -83.7662 
13.7738 2.20485 -83.8713 
13.7938 2.25533 -83.9853 
13.8138 2.29589 -84.108 
13.8338 2.32553 -84.2386 
13.8539 2.34338 -84.3751 
13.8739 2.34884 -84.5147 
13.8939 2.34173 -84.6541 
13.9139 2.3223 -84.79 
13.9339 2.29117 -84.9196 
13.954 2.24925 -85.0412 
13.974 2.19756 -85.154 
13.994 2.13709 -85.258 
14.014 2.06878 -85.3539 
14.034 1.99346 -85.4425 
14.0541 1.9118 -85.5252 
14.0741 1.82442 -85.603 
14.0941 1.73183 -85.6773 
14.1141 1.63452 -85.7493 
14.1341 1.53296 -85.8205 
14.1542 1.42767 -85.8922 
14.1742 1.31925 -85.9662 
14.1942 1.20841 -86.0445 
14.2142 1.09612 -86.1297 
14.2342 0.983657 -86.2255 
14.2543 0.872835 -86.3368 
14.2743 0.766329 -86.4704 
14.2943 0.668182 -86.6359 
14.3143 0.584497 -86.8445 
14.3343 0.523875 -87.1038 
14.3544 0.495899 -87.4056 
14.3744 0.506514 -87.7171 
14.3944 0.553316 -87.9984 
14.4144 0.62766 -88.2298 
14.4344 0.720097 -88.4137 
14.4545 0.823381 -88.5606 
14.4745 0.932634 -88.681 
14.4945 1.04462 -88.7831 
14.5145 1.15718 -88.8727 
14.5345 1.26881 -88.9538 
14.5546 1.37844 -89.0295 
14.5746 1.48525 -89.102 
14.5946 1.58858 -89.1732 
14.6146 1.68789 -89.2447 
14.6346 1.7827 -89.3178 
14.6547 1.87253 -89.3938 
14.6747 1.95687 -89.4741 
14.6947 2.03517 -89.5599 
14.7147 2.10678 -89.6523 
14.7347 2.17094 -89.7525 
14.7548 2.22677 -89.8612 
14.7748 2.27328 -89.9788 
14.7948 2.30947 -90.105 
14.8148 2.33435 -90.2383 
14.8348 2.34714 -90.3764 
14.8549 2.34743 -90.5164 
14.8749 2.3352 -90.6547 
14.8949 2.31086 -90.7883 
14.9149 2.27517 -90.9147 
14.9349 2.2291 -91.0328 
14.955 2.17367 -91.1419 
14.975 2.10987 -91.2425 
14.995 2.03858 -91.3352 
15.015 1.96058 -91.4213 
15.035 1.8765 -91.5018 
15.0551 1.78691 -91.578 
15.0751 1.69232 -91.6512 
15.0951 1.5932 -91.7227 
15.1151 1.49004 -91.7939 
15.1351 1.38338 -91.8663 
15.1552 1.27386 -91.9418 
15.1752 1.1623 -92.0226 
15.1952 1.04976 -92.1117 
15.2152 0.937711 -92.2132 
15.2352 0.828266 -92.3326 
15.2553 0.724606 -92.4781 
15.2753 0.631546 -92.66 
15.2953 0.556188 -92.8891 
15.3153 0.507901 -93.1683 
