PARAMETRIC_CURVE_CARTESIAN_2D
Double pendulum - phase space trajectory
t1: 0
t2: 1
NumPoints: 3379
0 0.5 0.101 
0.000296033 0.482618 0.115227 
0.000592066 0.465264 0.129489 
0.000888099 0.447931 0.143776 
0.00118413 0.430612 0.15808 
0.00148017 0.4133 0.172392 
0.0017762 0.395985 0.186701 
0.00207223 0.378659 0.200997 
0.00236827 0.361312 0.215266 
0.0026643 0.343932 0.229496 
0.00296033 0.326508 0.243672 
0.00325636 0.309027 0.257778 
0.0035524 0.291473 0.271793 
0.00384843 0.273832 0.285697 
0.00414446 0.256084 0.299466 
0.0044405 0.238211 0.313071 
0.00473653 0.220189 0.32648 
0.00503256 0.201994 0.339652 
0.0053286 0.183597 0.35254 
0.00562463 0.164965 0.365087 
0.00592066 0.14606 0.377219 
0.0062167 0.12684 0.388845 
0.00651273 0.107255 0.399845 
0.00680876 0.0872468 0.410055 
0.0071048 0.066754 0.419252 
0.00740083 0.0457142 0.427116 
0.00769686 0.0240864 0.433171 
0.0079929 0.00190995 0.436695 
0.00828893 -0.0205312 0.436613 
0.00858496 -0.0423738 0.431542 
0.00888099 -0.0618851 0.420499 
0.00917703 -0.0772366 0.404124 
0.00947306 -0.0879529 0.384365 
0.00976909 -0.0947452 0.362947 
0.0100651 -0.0985527 0.34081 
0.0103612 -0.100122 0.3184 
0.0106572 -0.099981 0.295938 
0.0109532 -0.0985025 0.273524 
0.0112493 -0.0959549 0.251206 
0.0115453 -0.0925383 0.229005 
0.0118413 -0.0884054 0.206925 
0.0121374 -0.0836764 0.184966 
0.0124334 -0.0784483 0.163121 
0.0127294 -0.0728016 0.14138 
0.0130255 -0.0668044 0.119733 
0.0133215 -0.0605156 0.0981687 
0.0136175 -0.0539874 0.0766759 
0.0139136 -0.0472666 0.0552427 
0.0142096 -0.0403961 0.0338569 
0.0145056 -0.0334162 0.0125067 
0.0148017 -0.026365 -0.00882008 
0.0150977 -0.0192794 -0.0301354 
0.0153937 -0.0121956 -0.0514514 
0.0156898 -0.00514986 -0.07278 
0.0159858 0.00182084 -0.0941333 
0.0162818 0.00867836 -0.115523 
0.0165779 0.0153825 -0.136962 
0.0168739 0.02189 -0.158461 
0.0171699 0.0281535 -0.180032 
0.017466 0.0341202 -0.201687 
0.017762 0.0397299 -0.223438 
0.018058 0.0449121 -0.245294 
0.0183541 0.0495826 -0.267265 
0.0186501 0.053638 -0.289358 
0.0189461 0.0569475 -0.311575 
0.0192422 0.0593403 -0.333909 
0.0195382 0.0605857 -0.356336 
0.0198342 0.0603589 -0.378796 
0.0201303 0.0581845 -0.401151 
0.0204263 0.0533451 -0.423081 
0.0207223 0.0447832 -0.443835 
0.0210184 0.0312092 -0.461728 
0.0213144 0.0124812 -0.47404 
0.0216104 -0.00931867 -0.479199 
0.0219065 -0.0317388 -0.478408 
0.0222025 -0.0536688 -0.473592 
0.0224985 -0.0748532 -0.466132 
0.0227946 -0.095317 -0.456872 
0.0230906 -0.11515 -0.446326 
0.0233866 -0.134445 -0.434826 
0.0236827 -0.153284 -0.422592 
0.0239787 -0.171734 -0.40978 
0.0242747 -0.189852 -0.396501 
0.0245708 -0.207683 -0.382841 
0.0248668 -0.225266 -0.368863 
0.0251628 -0.242634 -0.354617 
0.0254589 -0.259812 -0.340143 
0.0257549 -0.276823 -0.325474 
0.0260509 -0.293685 -0.310635 
0.026347 -0.310414 -0.295645 
0.026643 -0.327022 -0.280521 
0.026939 -0.343517 -0.265274 
0.0272351 -0.359905 -0.249912 
0.0275311 -0.376188 -0.234439 
0.0278271 -0.392362 -0.218852 
0.0281231 -0.408419 -0.203145 
0.0284192 -0.42434 -0.187299 
0.0287152 -0.440091 -0.171285 
0.0290112 -0.455608 -0.155044 
0.0293073 -0.47076 -0.138456 
0.0296033 -0.485177 -0.121254 
0.0298993 -0.496648 -0.101776 
0.0301954 -0.477185 -0.10311 
0.0304914 -0.457339 -0.113625 
0.0307874 -0.438106 -0.125223 
0.0310835 -0.419207 -0.137363 
0.0313795 -0.400516 -0.149821 
0.0316755 -0.381968 -0.16249 
0.0319716 -0.363517 -0.175301 
0.0322676 -0.345132 -0.188205 
0.0325636 -0.326783 -0.201163 
0.0328597 -0.308449 -0.214139 
0.0331557 -0.290105 -0.227103 
0.0334517 -0.27173 -0.240022 
0.0337478 -0.253302 -0.252867 
0.0340438 -0.234799 -0.265602 
0.0343398 -0.216198 -0.278194 
0.0346359 -0.197473 -0.2906 
0.0349319 -0.178597 -0.302777 
0.0352279 -0.159542 -0.314672 
0.035524 -0.140276 -0.32622 
0.03582 -0.120762 -0.337346 
0.036116 -0.100962 -0.347955 
0.0364121 -0.0808323 -0.357924 
0.0367081 -0.0603274 -0.367095 
0.0370041 -0.0394001 -0.375256 
0.0373002 -0.0180104 -0.38211 
0.0375962 0.00385448 -0.387243 
0.0378922 0.0261325 -0.390053 
0.0381883 0.0485777 -0.389698 
0.0384843 0.0705469 -0.385114 
0.0387803 0.0907767 -0.375404 
0.0390764 0.107692 -0.360643 
0.0393724 0.120412 -0.342118 
0.0396684 0.129136 -0.321393 
0.0399645 0.134583 -0.299599 
0.0402605 0.137499 -0.277323 
0.0405565 0.138454 -0.25488 
0.0408526 0.13787 -0.232424 
0.0411486 0.136056 -0.210034 
0.0414446 0.133245 -0.187748 
0.0417407 0.129614 -0.16558 
0.0420367 0.125301 -0.143535 
0.0423327 0.120419 -0.12161 
0.0426288 0.115058 -0.0997963 
0.0429248 0.109296 -0.0780855 
0.0432208 0.103197 -0.0564666 
0.0435169 0.096821 -0.0349283 
0.0438129 0.0902172 -0.0134587 
0.0441089 0.0834321 0.00795432 
0.044405 0.0765085 0.0293229 
0.044701 0.0694861 0.0506591 
0.044997 0.0624029 0.0719754 
0.0452931 0.0552959 0.0932836 
0.0455891 0.0482015 0.114596 
0.0458851 0.041156 0.135925 
0.0461812 0.0341969 0.157282 
0.0464772 0.0273629 0.178679 
0.0467732 0.0206955 0.200129 
0.0470693 0.0142392 0.221643 
0.0473653 0.0080436 0.243234 
0.0476613 0.00216508 0.264914 
0.0479574 -0.003331 0.286693 
0.0482534 -0.00836649 0.308583 
0.0485494 -0.0128452 0.330594 
0.0488455 -0.0166449 0.352732 
0.0491415 -0.0196038 0.374998 
0.0494375 -0.0214999 0.397378 
0.0497336 -0.0220105 0.419833 
0.0500296 -0.0206418 0.442249 
0.0503256 -0.016591 0.464332 
0.0506217 -0.00852311 0.485265 
0.0509177 0.00536848 0.502816 
0.0512137 0.0252329 0.513038 
0.0515098 0.0475737 0.514661 
0.0518058 0.0695976 0.510337 
0.0521018 0.0906435 0.5025 
0.0523979 0.110755 0.492499 
0.0526939 0.130088 0.481062 
0.0529899 0.148784 0.468611 
0.053286 0.166956 0.455408 
0.053582 0.184693 0.441624 
0.053878 0.202062 0.427381 
0.0541741 0.219118 0.412763 
0.0544701 0.235902 0.397834 
0.0547661 0.252447 0.382642 
0.0550622 0.268781 0.367222 
0.0553582 0.284924 0.351603 
0.0556542 0.300892 0.335805 
0.0559503 0.316696 0.319843 
0.0562463 0.332343 0.303726 
0.0565423 0.347835 0.287461 
0.0568384 0.36317 0.271048 
0.0571344 0.378339 0.254482 
0.0574304 0.393327 0.237751 
0.0577265 0.408107 0.220836 
0.0580225 0.422637 0.203706 
0.0583185 0.436851 0.186313 
0.0586146 0.450633 0.168576 
0.0589106 0.463773 0.150359 
0.0592066 0.475806 0.131396 
0.0595027 0.485236 0.111039 
0.0597987 0.480426 0.091261 
0.0600947 0.458209 0.0921818 
0.0603908 0.436944 0.0993911 
0.0606868 0.416406 0.108482 
0.0609828 0.396328 0.118553 
0.0612789 0.376566 0.129231 
0.0615749 0.357033 0.140322 
0.0618709 0.337668 0.151704 
0.062167 0.318424 0.16329 
0.062463 0.299265 0.175015 
0.062759 0.280158 0.186825 
0.0630551 0.261075 0.198672 
0.0633511 0.241987 0.210514 
0.0636471 0.22287 0.222307 
0.0639432 0.203696 0.234009 
0.0642392 0.18444 0.245574 
0.0645352 0.165074 0.256954 
0.0648313 0.145569 0.268096 
0.0651273 0.125895 0.278936 
0.0654233 0.10602 0.289404 
0.0657194 0.0859097 0.29941 
0.0660154 0.0655266 0.308849 
0.0663114 0.0448326 0.317585 
0.0666075 0.0237899 0.325444 
0.0669035 0.00236623 0.332193 
0.0671995 -0.0194536 0.337517 
0.0674956 -0.0416422 0.340982 
0.0677916 -0.0640756 0.341987 
0.0680876 -0.0864154 0.339739 
0.0683837 -0.107935 0.333344 
0.0686797 -0.12743 0.322207 
0.0689757 -0.1436 0.30661 
0.0692718 -0.155807 0.287736 
0.0695678 -0.164271 0.266909 
0.0698638 -0.169619 0.245088 
0.0701599 -0.172508 0.222808 
0.0704559 -0.173464 0.200363 
0.0707519 -0.172887 0.177906 
0.071048 -0.171076 0.155515 
0.071344 -0.16826 0.133229 
0.07164 -0.164615 0.111063 
0.0719361 -0.160282 0.0890225 
0.0722321 -0.155372 0.0671031 
0.0725281 -0.149979 0.0452976 
0.0728242 -0.14418 0.0235966 
0.0731202 -0.138043 0.0019889 
0.0734162 -0.131625 -0.0195371 
0.0737123 -0.124979 -0.0409937 
0.0740083 -0.118152 -0.0623932 
0.0743043 -0.111186 -0.083748 
0.0746004 -0.104122 -0.105071 
0.0748964 -0.0969982 -0.126373 
0.0751924 -0.089852 -0.147668 
0.0754885 -0.0827199 -0.168968 
0.0757845 -0.0756388 -0.190285 
0.0760805 -0.0686461 -0.211631 
0.0763766 -0.0617815 -0.233019 
0.0766726 -0.0550869 -0.25446 
0.0769686 -0.0486081 -0.275968 
0.0772647 -0.042397 -0.297555 
0.0775607 -0.0365131 -0.319232 
0.0778567 -0.0310271 -0.341014 
0.0781528 -0.0260259 -0.362913 
0.0784488 -0.0216201 -0.384938 
0.0787448 -0.017957 -0.407099 
0.0790409 -0.015242 -0.429396 
0.0793369 -0.013781 -0.451808 
0.0796329 -0.0140631 -0.474264 
0.079929 -0.0169489 -0.496528 
0.080225 -0.0240823 -0.517784 
0.080521 -0.038232 -0.535064 
0.0808171 -0.0592792 -0.542372 
0.0811131 -0.0815363 -0.539768 
0.0814091 -0.102547 -0.531852 
0.0817052 -0.1223 -0.52116 
0.0820012 -0.141073 -0.508826 
0.0822972 -0.159091 -0.495414 
0.0825933 -0.176517 -0.481239 
0.0828893 -0.193463 -0.466495 
0.0831853 -0.210014 -0.451308 
0.0834813 -0.226231 -0.435766 
0.0837774 -0.242161 -0.419929 
0.0840734 -0.257838 -0.403842 
0.0843694 -0.273289 -0.387538 
0.0846655 -0.288532 -0.37104 
0.0849615 -0.303581 -0.354364 
0.0852575 -0.318443 -0.337521 
0.0855536 -0.333119 -0.320516 
0.0858496 -0.347607 -0.30335 
0.0861456 -0.361896 -0.286018 
0.0864417 -0.375969 -0.268511 
0.0867377 -0.389799 -0.25081 
0.0870337 -0.403346 -0.232893 
0.0873298 -0.41655 -0.214721 
0.0876258 -0.429321 -0.196243 
0.0879218 -0.441515 -0.177378 
0.0882179 -0.452885 -0.158007 
0.0885139 -0.462954 -0.137931 
0.0888099 -0.470585 -0.116818 
0.089106 -0.471871 -0.0945379 
0.089402 -0.456473 -0.079538 
0.089698 -0.434114 -0.0788267 
0.0899941 -0.412144 -0.0834616 
0.0902901 -0.390784 -0.0904029 
0.0905861 -0.36989 -0.0986473 
0.0908822 -0.349347 -0.107732 
0.0911782 -0.329072 -0.1174 
0.0914742 -0.309001 -0.127485 
0.0917703 -0.289085 -0.137873 
0.0920663 -0.269282 -0.148475 
0.0923623 -0.249557 -0.159219 
0.0926584 -0.229876 -0.170046 
0.0929544 -0.210209 -0.180898 
0.0932504 -0.190528 -0.191724 
0.0935465 -0.170803 -0.202471 
0.0938425 -0.151008 -0.213086 
0.0941385 -0.131111 -0.223512 
0.0944346 -0.111085 -0.233686 
0.0947306 -0.0908967 -0.243536 
0.0950266 -0.0705158 -0.252979 
0.0953227 -0.0499085 -0.261918 
0.0956187 -0.0290409 -0.270231 
0.0959147 -0.00788004 -0.277766 
0.0962108 0.0136022 -0.284326 
0.0965068 0.0354214 -0.289655 
0.0968028 0.0575658 -0.293405 
0.0970989 0.07996 -0.295108 
0.0973949 0.102396 -0.29414 
0.0976909 0.124415 -0.289737 
0.097987 0.145169 -0.281164 
0.098283 0.16347 -0.268141 
0.098579 0.178274 -0.251233 
0.0988751 0.189251 -0.231614 
0.0991711 0.196737 -0.21041 
0.0994671 0.201333 -0.188419 
0.0997632 0.203637 -0.166071 
0.100059 0.204121 -0.143613 
0.100355 0.203151 -0.12117 
0.100651 0.201003 -0.0988085 
0.100947 0.197893 -0.0765618 
0.101243 0.193988 -0.0544412 
0.101539 0.18942 -0.032448 
0.101835 0.184298 -0.0105773 
0.102131 0.178713 0.0111796 
0.102427 0.17274 0.0328331 
0.102724 0.166444 0.0543951 
0.10302 0.159883 0.0758779 
0.103316 0.153109 0.0972942 
0.103612 0.146166 0.118657 
0.103908 0.139098 0.139978 
0.104204 0.131946 0.161271 
0.1045 0.124746 0.182548 
0.104796 0.117537 0.203822 
0.105092 0.110355 0.225105 
0.105388 0.103238 0.24641 
0.105684 0.096224 0.267749 
0.10598 0.0893543 0.289135 
0.106276 0.0826733 0.310581 
0.106572 0.076231 0.3321 
0.106868 0.070085 0.353705 
0.107164 0.0643041 0.37541 
0.10746 0.0589737 0.397231 
0.107756 0.054205 0.419181 
0.108052 0.0501492 0.441274 
0.108348 0.0470267 0.463517 
0.108644 0.0451848 0.485902 
0.10894 0.0452344 0.50836 
0.109236 0.0484141 0.530577 
0.109532 0.0576459 0.550949 
0.109828 0.0767007 0.562074 
0.110124 0.0988939 0.559343 
0.11042 0.119295 0.549982 
0.110716 0.138143 0.537766 
0.111012 0.155908 0.52402 
0.111308 0.172891 0.509319 
0.111604 0.189283 0.49396 
0.111901 0.205207 0.478118 
0.112197 0.220751 0.461902 
0.112493 0.235975 0.445386 
0.112789 0.250922 0.428618 
0.113085 0.265622 0.411634 
0.113381 0.280099 0.394459 
0.113677 0.294364 0.377108 
0.113973 0.308426 0.359592 
0.114269 0.322286 0.341915 
0.114565 0.335937 0.324077 
0.114861 0.349369 0.306072 
0.115157 0.362562 0.287892 
0.115453 0.375487 0.269521 
0.115749 0.388102 0.250935 
0.116045 0.40035 0.232105 
0.116341 0.412145 0.212989 
0.116637 0.423364 0.193529 
0.116933 0.433814 0.173645 
0.117229 0.443174 0.153227 
0.117525 0.450851 0.132121 
0.117821 0.455572 0.110177 
0.118117 0.454062 0.0878722 
0.118413 0.440442 0.0704872 
0.118709 0.418942 0.0644552 
0.119005 0.396516 0.0652951 
0.119301 0.37445 0.0694646 
0.119597 0.352824 0.0755304 
0.119893 0.331576 0.0828131 
0.120189 0.310634 0.0909365 
0.120485 0.289937 0.099665 
0.120782 0.269433 0.108837 
0.121078 0.249077 0.118333 
0.121374 0.228829 0.128058 
0.12167 0.208655 0.137935 
0.121966 0.188521 0.147894 
0.122262 0.168397 0.157872 
0.122558 0.148252 0.167809 
0.122854 0.128057 0.177644 
0.12315 0.107782 0.187313 
0.123446 0.0873977 0.196748 
0.123742 0.0668723 0.205874 
0.124038 0.0461753 0.214604 
0.124334 0.0252754 0.222835 
0.12463 0.0041414 0.230444 
0.124926 -0.0172554 0.237278 
0.125222 -0.0389379 0.243142 
0.125518 -0.0609144 0.247781 
0.125814 -0.0831629 0.25086 
0.12611 -0.105597 0.25193 
0.126406 -0.128004 0.250404 
0.126702 -0.149936 0.245574 
0.126998 -0.170594 0.236765 
0.127294 -0.188867 0.223701 
0.12759 -0.203757 0.20687 
0.127886 -0.214885 0.187335 
0.128182 -0.222517 0.166196 
0.128478 -0.227233 0.144231 
0.128774 -0.229608 0.121892 
0.12907 -0.230122 0.0994349 
0.129366 -0.229148 0.0769928 
0.129663 -0.22697 0.0546352 
0.129959 -0.22381 0.0323959 
0.130255 -0.219839 0.0102872 
0.130551 -0.215195 -0.0116897 
0.130847 -0.20999 -0.0335405 
0.131143 -0.204316 -0.0552743 
0.131439 -0.198251 -0.0769023 
0.131735 -0.191862 -0.0984367 
0.132031 -0.185206 -0.11989 
0.132327 -0.178336 -0.141276 
0.132623 -0.171299 -0.162608 
0.132919 -0.164137 -0.183898 
0.133215 -0.156891 -0.205159 
0.133511 -0.149599 -0.226405 
0.133807 -0.142299 -0.247648 
0.134103 -0.135028 -0.268901 
0.134399 -0.127823 -0.290176 
0.134695 -0.120724 -0.311487 
0.134991 -0.113773 -0.332846 
0.135287 -0.107015 -0.354268 
0.135583 -0.100505 -0.375766 
0.135879 -0.0943049 -0.397356 
0.136175 -0.0884937 -0.419054 
0.136471 -0.083173 -0.440877 
0.136767 -0.0784839 -0.462844 
0.137063 -0.0746366 -0.484974 
0.137359 -0.0719762 -0.507277 
0.137655 -0.0711553 -0.529719 
0.137951 -0.073699 -0.552008 
0.138247 -0.0843695 -0.571464 
0.138544 -0.105944 -0.574868 
0.13884 -0.126388 -0.565683 
0.139136 -0.144685 -0.552654 
0.139432 -0.161671 -0.537957 
0.139728 -0.177795 -0.522319 
0.140024 -0.193302 -0.506068 
0.14032 -0.208338 -0.48938 
0.140616 -0.222998 -0.472361 
0.140912 -0.237345 -0.455077 
0.141208 -0.251422 -0.437573 
0.141504 -0.265259 -0.419879 
0.1418 -0.278874 -0.402013 
0.142096 -0.292277 -0.383987 
0.142392 -0.305472 -0.365809 
0.142688 -0.318455 -0.347478 
0.142984 -0.331215 -0.328992 
0.14328 -0.343737 -0.310343 
0.143576 -0.355993 -0.291519 
0.143872 -0.367948 -0.272502 
0.144168 -0.379553 -0.253269 
0.144464 -0.39074 -0.23379 
0.14476 -0.401414 -0.214026 
0.145056 -0.411441 -0.193925 
0.145352 -0.420617 -0.173422 
0.145648 -0.428622 -0.152436 
0.145944 -0.434912 -0.130875 
0.14624 -0.438462 -0.108706 
0.146536 -0.437161 -0.0863271 
0.146832 -0.427352 -0.0662993 
0.147128 -0.408699 -0.0540583 
0.147425 -0.386677 -0.0499028 
0.147721 -0.364237 -0.050556 
0.148017 -0.342045 -0.0540007 
0.148313 -0.320198 -0.0592147 
0.148609 -0.298673 -0.0656341 
0.148905 -0.277424 -0.0729151 
0.149201 -0.256402 -0.080829 
0.149497 -0.235563 -0.0892119 
0.149793 -0.214865 -0.0979392 
0.150089 -0.194272 -0.106911 
0.150385 -0.173749 -0.116041 
0.150681 -0.153264 -0.125255 
0.150977 -0.132785 -0.134483 
0.151273 -0.112281 -0.143656 
0.151569 -0.0917224 -0.152706 
0.151865 -0.0710789 -0.161561 
0.152161 -0.0503202 -0.170142 
0.152457 -0.029416 -0.178363 
0.152753 -0.00833592 -0.186121 
0.153049 0.0129493 -0.193296 
0.153345 0.0344666 -0.199741 
0.153641 0.056237 -0.20527 
0.153937 0.078268 -0.209647 
0.154233 0.10054 -0.21256 
0.154529 0.122976 -0.213598 
0.154825 0.145394 -0.212225 
0.155121 0.167409 -0.207783 
0.155417 0.188324 -0.1996 
0.155713 0.207112 -0.187291 
0.156009 0.222725 -0.171133 
0.156306 0.23462 -0.152063 
0.156602 0.242929 -0.131177 
0.156898 0.248161 -0.109332 
0.157194 0.250912 -0.0870373 
0.15749 0.251686 -0.0645882 
0.157786 0.250883 -0.0421402 
0.158082 0.248811 -0.0197733 
0.158378 0.245706 0.00247278 
0.158674 0.241752 0.024584 
0.15897 0.237097 0.0465585 
0.159266 0.231859 0.0684014 
0.159562 0.226134 0.090122 
0.159858 0.220005 0.111732 
0.160154 0.21354 0.133244 
0.16045 0.206801 0.154672 
0.160746 0.19984 0.176028 
0.161042 0.192705 0.197327 
0.161338 0.18544 0.218582 
0.161634 0.178085 0.239806 
0.16193 0.170679 0.261012 
0.162226 0.163259 0.282214 
0.162522 0.155863 0.303423 
0.162818 0.148528 0.324654 
0.163114 0.141294 0.345919 
0.16341 0.134202 0.367233 
0.163706 0.127301 0.388609 
0.164002 0.120647 0.410063 
0.164298 0.114306 0.431612 
0.164594 0.108368 0.453275 
0.16489 0.102953 0.475075 
0.165187 0.098243 0.497037 
0.165483 0.0945386 0.519191 
0.165779 0.0924339 0.541551 
0.166075 0.0934731 0.563955 
0.166371 0.10417 0.583022 
0.166667 0.125761 0.580147 
0.166963 0.144209 0.567363 
0.167259 0.160752 0.552173 
0.167555 0.176237 0.535901 
0.167851 0.191028 0.518996 
0.168147 0.205321 0.501668 
0.168443 0.219231 0.484031 
0.168739 0.232831 0.466153 
0.169035 0.246166 0.448077 
0.169331 0.259266 0.429831 
0.169627 0.27215 0.411431 
0.169923 0.284826 0.392887 
0.170219 0.297296 0.374203 
0.170515 0.309553 0.35538 
0.170811 0.321585 0.336412 
0.171107 0.333374 0.317292 
0.171403 0.34489 0.298006 
0.171699 0.356096 0.278538 
0.171995 0.366941 0.258867 
0.172291 0.377357 0.238965 
0.172587 0.387252 0.218799 
0.172883 0.396499 0.198327 
0.173179 0.404915 0.177501 
0.173475 0.412228 0.156263 
0.173771 0.418009 0.134558 
0.174067 0.421533 0.112379 
0.174364 0.421509 0.0899352 
0.17466 0.415726 0.0682891 
0.174956 0.402061 0.0506016 
0.175252 0.382279 0.0401271 
0.175548 0.360229 0.0360212 
0.175844 0.337776 0.0360386 
0.17614 0.315474 0.0386752 
0.176436 0.293447 0.0430666 
0.176732 0.271702 0.0486929 
0.177028 0.250209 0.0552193 
0.177324 0.22893 0.0624148 
0.17762 0.207828 0.07011 
0.177916 0.186863 0.0781737 
0.178212 0.166 0.0864992 
0.178508 0.145207 0.094995 
0.178804 0.124449 0.103579 
0.1791 0.103697 0.112176 
0.179396 0.08292 0.120711 
0.179692 0.0620865 0.129109 
0.179988 0.0411667 0.13729 
0.180284 0.0201307 0.145167 
0.18058 -0.00105107 0.152643 
0.180876 -0.0224075 0.159603 
0.181172 -0.0439655 0.165912 
0.181468 -0.0657468 0.1714 
0.181764 -0.0877625 0.175854 
0.18206 -0.110003 0.179001 
0.182356 -0.132416 0.180478 
0.182652 -0.154867 0.179813 
0.182948 -0.177067 0.176408 
0.183245 -0.198465 0.169592 
0.183541 -0.21817 0.158821 
0.183837 -0.235098 0.144059 
0.184133 -0.248444 0.125982 
0.184429 -0.258065 0.105674 
0.184725 -0.264352 0.084108 
0.185021 -0.267899 0.0619278 
0.185317 -0.269258 0.0395073 
0.185613 -0.268879 0.017049 
0.185909 -0.267108 -0.00534249 
0.186205 -0.264214 -0.0276169 
0.186501 -0.260402 -0.049753 
0.186797 -0.255835 -0.071746 
0.187093 -0.250642 -0.0936 
0.187389 -0.24493 -0.115324 
0.187685 -0.238786 -0.13693 
0.187981 -0.232285 -0.158431 
0.188277 -0.225489 -0.17984 
0.188573 -0.218454 -0.201173 
0.188869 -0.211231 -0.222442 
0.189165 -0.203863 -0.243661 
0.189461 -0.196392 -0.264845 
0.189757 -0.188857 -0.286006 
0.190053 -0.181296 -0.307157 
0.190349 -0.173744 -0.328312 
0.190645 -0.166239 -0.349483 
0.190941 -0.15882 -0.370685 
0.191237 -0.151529 -0.391931 
0.191533 -0.144413 -0.413236 
0.191829 -0.137528 -0.434617 
0.192126 -0.130944 -0.456093 
0.192422 -0.124754 -0.477685 
0.192718 -0.119095 -0.499423 
0.193014 -0.114187 -0.521342 
0.19331 -0.110452 -0.543488 
0.193606 -0.108944 -0.565889 
0.193902 -0.114913 -0.587126 
0.194198 -0.135647 -0.584218 
0.194494 -0.152815 -0.569752 
0.19479 -0.168127 -0.553325 
0.195086 -0.182501 -0.536062 
0.195382 -0.196273 -0.518318 
0.195678 -0.20962 -0.50025 
0.195974 -0.222638 -0.481945 
0.19627 -0.235389 -0.463453 
0.196566 -0.247907 -0.444802 
0.196862 -0.260215 -0.426012 
0.197158 -0.272324 -0.407093 
0.197454 -0.284235 -0.388048 
0.19775 -0.295943 -0.368879 
0.198046 -0.307438 -0.34958 
