REAL_FUNCTION
Average pressure on walls for different speed of balls
x1: 1
x2: 15
NumPoints: 100
1 2.59524
1.14141 3.67141
1.28283 4.74758
1.42424 5.82375
1.56566 6.89992
1.70707 7.97609
1.84848 9.05227
1.9899 10.1284
2.13131 12.5416
2.27273 15.0577
2.41414 17.5737
2.55556 20.0897
2.69697 22.6058
2.83838 25.1218
2.9798 27.6379
3.12121 30.1539
3.26263 32.6699
3.40404 35.186
3.54545 37.702
3.68687 40.2181
3.82828 42.7341
3.9697 45.2501
4.11111 47.7662
4.25253 50.2822
4.39394 52.7982
4.53535 55.3143
4.67677 57.8303
4.81818 60.3464
4.9596 62.8624
5.10101 66.8866
5.24242 71.5142
5.38384 76.1417
5.52525 80.7692
5.66667 85.3968
5.80808 90.0243
5.94949 94.6518
6.09091 99.2793
6.23232 103.907
6.37374 108.534
6.51515 113.162
6.65657 117.789
6.79798 122.417
6.93939 127.045
7.08081 131.672
7.22222 136.3
7.36364 140.927
7.50505 145.555
7.64646 150.182
7.78788 154.81
7.92929 159.437
8.07071 164.863
8.21212 171.088
8.35354 177.313
8.49495 183.538
8.63636 189.763
8.77778 195.988
8.91919 202.212
9.06061 208.437
9.20202 214.662
9.34343 220.887
9.48485 227.112
9.62626 233.337
9.76768 239.562
9.90909 245.786
10.0505 252.659
10.1919 260.698
10.3333 268.737
10.4747 276.775
10.6162 284.814
10.7576 292.853
10.899 300.891
11.0404 308.93
11.1818 316.969
11.3232 325.008
11.4646 333.046
11.6061 341.085
11.7475 349.124
11.8889 357.163
12.0303 365.513
12.1717 375.007
12.3131 384.5
12.4545 393.994
12.596 403.487
12.7374 412.981
12.8788 422.474
13.0202 431.968
13.1616 441.461
13.303 450.955
13.4444 460.449
13.5859 469.942
13.7273 479.436
13.8687 488.929
14.0101 498.423
14.1515 507.916
14.2929 517.41
14.4343 526.903
14.5758 536.397
14.7172 545.891
14.8586 555.384
15 564.878
