REAL_FUNCTION
Average pressure on walls for different square root of speed of balls
x1: 1
x2: 3.87298
NumPoints: 100
1 0.51203
1.02902 0.613333
1.05804 0.714636
1.08706 0.815939
1.11608 0.917243
1.1451 1.01855
1.17412 1.11985
1.20314 1.22115
1.23216 1.32246
1.26118 1.42376
1.2902 1.52506
1.31922 1.62637
1.34824 1.72767
1.37726 1.82897
1.40628 1.93028
1.4353 2.23581
1.46432 2.61818
1.49334 3.00055
1.52236 3.38292
1.55138 3.76529
1.5804 4.14766
1.60942 4.53003
1.63844 4.9124
1.66746 5.29477
1.69648 5.67714
1.7255 6.05951
1.75452 6.44188
1.78354 6.82425
1.81256 7.20662
1.84158 7.58899
1.8706 7.97136
1.89962 8.35373
1.92864 8.73609
1.95766 9.11846
1.98668 9.50083
2.0157 9.8832
2.04472 10.2656
2.07374 10.6479
2.10276 11.0303
2.13178 11.4127
2.1608 11.7951
2.18982 12.1774
2.21884 12.5598
2.24786 13.1804
2.27688 14.1489
2.3059 15.1174
2.33492 16.086
2.36394 17.0545
2.39296 18.023
2.42198 18.9916
2.451 19.9601
2.48002 20.9286
2.50904 21.8972
2.53806 22.8657
2.56708 23.8342
2.5961 24.8028
2.62512 25.7713
2.65414 26.7398
2.68316 27.7084
2.71218 28.6769
2.7412 29.6454
2.77022 30.6139
2.79924 31.5825
2.82826 32.551
2.85728 34.0875
2.8863 35.6273
2.91532 37.167
2.94434 38.7067
2.97336 40.2465
3.00238 41.7862
3.0314 43.326
3.06042 44.8657
3.08944 46.4055
3.11846 47.9452
3.14748 49.4849
3.1765 51.3227
3.20552 53.4703
3.23454 55.6179
3.26356 57.7656
3.29258 59.9132
3.3216 62.0608
3.35062 64.2084
3.37964 66.3561
3.40866 68.5037
3.43768 70.6513
3.4667 72.8571
3.49572 75.653
3.52474 78.4489
3.55376 81.2448
3.58278 84.0407
3.6118 86.8366
3.64082 89.6325
3.66984 92.4284
3.69886 95.2243
3.72788 98.0202
3.7569 100.816
3.78592 103.612
3.81494 106.408
3.84396 109.204
3.87298 112
