REAL_FUNCTION
Damped Harmonic Oscilator - angle in time
x1: 0
x2: 30
NumPoints: 200
0 0.5
0.150754 0.497273
0.301508 0.489537
0.452261 0.477444
0.603015 0.46162
0.753769 0.442656
0.904523 0.421113
1.05528 0.397514
1.20603 0.372345
1.35678 0.346053
1.50754 0.319047
1.65829 0.291697
1.80905 0.264336
1.9598 0.237255
2.11055 0.210715
2.26131 0.184936
2.41206 0.160108
2.56281 0.136388
2.71357 0.113905
2.86432 0.0927579
3.01508 0.0730215
3.16583 0.0547465
3.31658 0.0379623
3.46734 0.022679
3.61809 0.00888953
3.76884 -0.0034283
3.9196 -0.01431
4.07035 -0.0238023
4.22111 -0.0319616
4.37186 -0.0388521
4.52261 -0.0445442
4.67337 -0.0491132
4.82412 -0.0526379
4.97487 -0.0551991
5.12563 -0.056879
5.27638 -0.0577598
5.42714 -0.0579227
5.57789 -0.0574477
5.72864 -0.0564123
5.8794 -0.0548912
6.03015 -0.0529558
6.1809 -0.050674
6.33166 -0.0481095
6.48241 -0.0453219
6.63317 -0.0423662
6.78392 -0.0392933
6.93467 -0.0361492
7.08543 -0.0329758
7.23618 -0.0298102
7.38693 -0.0266855
7.53769 -0.0236304
7.68844 -0.0206697
7.8392 -0.0178243
7.98995 -0.0151116
8.1407 -0.0125454
8.29146 -0.0101367
8.44221 -0.00789314
8.59296 -0.00582011
8.74372 -0.00392036
8.89447 -0.00219453
9.04523 -0.000641301
9.19598 0.000742316
9.34673 0.0019608
9.49749 0.00301987
9.64824 0.00392632
9.79899 0.00468779
9.94975 0.00531262
10.1005 0.00580964
10.2513 0.00618805
10.402 0.0064573
10.5528 0.00662689
10.7035 0.00670635
10.8543 0.00670505
11.005 0.0066322
11.1558 0.00649669
11.3065 0.00630709
11.4573 0.00607159
11.608 0.00579791
11.7588 0.00549331
11.9095 0.00516457
12.0603 0.00481795
12.2111 0.00445918
12.3618 0.00409348
12.5126 0.00372556
12.6633 0.00335959
12.8141 0.00299927
12.9648 0.00264781
13.1156 0.00230796
13.2663 0.00198205
13.4171 0.00167196
13.5678 0.00137922
13.7186 0.001105
13.8693 0.000850105
14.0201 0.000615083
14.1709 0.000400185
14.3216 0.000205422
14.4724 3.05901e-05
14.6231 -0.000124706
14.7739 -0.000261024
14.9246 -0.000379063
15.0754 -0.000479637
15.2261 -0.000563655
15.3769 -0.000632099
15.5276 -0.000686006
15.6784 -0.000726453
15.8291 -0.000754535
15.9799 -0.000771356
16.1307 -0.000778018
16.2814 -0.000775601
16.4322 -0.000765165
16.5829 -0.000747731
16.7337 -0.000724281
16.8844 -0.000695749
17.0352 -0.000663018
17.1859 -0.000626915
17.3367 -0.000588209
17.4874 -0.000547609
17.6382 -0.000505766
17.7889 -0.000463268
17.9397 -0.000420644
18.0905 -0.000378364
18.2412 -0.000336841
18.392 -0.000296433
18.5427 -0.000257446
18.6935 -0.000220135
18.8442 -0.000184708
18.995 -0.000151332
19.1457 -0.000120128
19.2965 -9.11857e-05
19.4472 -6.45561e-05
19.598 -4.02615e-05
19.7487 -1.82966e-05
19.8995 1.36846e-06
20.0503 1.87847e-05
20.201 3.40212e-05
20.3518 4.71629e-05
20.5025 5.8307e-05
20.6533 6.75615e-05
20.804 7.5042e-05
20.9548 8.087e-05
21.1055 8.5171e-05
21.2563 8.80724e-05
21.407 8.97023e-05
21.5578 9.01877e-05
21.7085 8.96534e-05
21.8593 8.8221e-05
22.0101 8.60078e-05
22.1608 8.31263e-05
22.3116 7.96831e-05
22.4623 7.57789e-05
22.6131 7.15079e-05
22.7638 6.69573e-05
22.9146 6.22077e-05
23.0653 5.73324e-05
23.2161 5.23979e-05
23.3668 4.74636e-05
23.5176 4.25823e-05
23.6683 3.78001e-05
23.8191 3.31571e-05
23.9698 2.86869e-05
24.1206 2.44178e-05
24.2714 2.03726e-05
24.4221 1.65692e-05
24.5729 1.30206e-05
24.7236 9.73597e-06
24.8744 6.72039e-06
25.0251 3.97555e-06
25.1759 1.50004e-06
25.3266 -7.10255e-07
25.4774 -2.66183e-06
25.6281 -4.36322e-06
25.7789 -5.82464e-06
25.9296 -7.05772e-06
26.0804 -8.07524e-06
26.2312 -8.89078e-06
26.3819 -9.51858e-06
26.5327 -9.97326e-06
26.6834 -1.02696e-05
26.8342 -1.04225e-05
26.9849 -1.04465e-05
27.1357 -1.03561e-05
27.2864 -1.01652e-05
27.4372 -9.88723e-06
27.5879 -9.53513e-06
27.7387 -9.12107e-06
27.8894 -8.65649e-06
28.0402 -8.15212e-06
28.191 -7.61787e-06
28.3417 -7.06285e-06
28.4925 -6.49535e-06
28.6432 -5.92286e-06
28.794 -5.35207e-06
28.9447 -4.78889e-06
29.0955 -4.23848e-06
29.2462 -3.70528e-06
29.397 -3.19302e-06
29.5477 -2.70482e-06
29.6985 -2.24316e-06
29.8492 -1.80996e-06
30 -1.40662e-06
