PARAMETRIC_CURVE_CARTESIAN_2D
Damped Forced Harmonic Oscilator - phase space trajectory
t1: 0
t2: 1
NumPoints: 1001
0 0.264663 0.0527681 
0.001 0.270762 0.048034 
0.002 0.276374 0.0427328 
0.003 0.281321 0.0368076 
0.004 0.285434 0.0302772 
0.005 0.2886 0.0232391 
0.006 0.290792 0.0158385 
0.007 0.292057 0.0082234 
0.008 0.292487 0.000514998 
0.009 0.292189 -0.00720043 
0.01 0.291262 -0.0148665 
0.011 0.289796 -0.0224482 
0.012 0.287864 -0.0299251 
0.013 0.285526 -0.0372855 
0.014 0.282833 -0.0445233 
0.015 0.279824 -0.051636 
0.016 0.276533 -0.0586229 
0.017 0.272989 -0.0654848 
0.018 0.269215 -0.0722229 
0.019 0.26523 -0.0788389 
0.02 0.261053 -0.0853348 
0.021 0.256696 -0.0917123 
0.022 0.252174 -0.0979733 
0.023 0.247498 -0.10412 
0.024 0.242676 -0.110153 
0.025 0.237719 -0.116075 
0.026 0.232632 -0.121887 
0.027 0.227424 -0.127591 
0.028 0.222101 -0.133186 
0.029 0.216668 -0.138676 
0.03 0.211131 -0.14406 
0.031 0.205494 -0.14934 
0.032 0.199762 -0.154515 
0.033 0.193938 -0.159588 
0.034 0.188026 -0.164558 
0.035 0.18203 -0.169427 
0.036 0.175953 -0.174193 
0.037 0.169798 -0.178859 
0.038 0.163568 -0.183423 
0.039 0.157265 -0.187887 
0.04 0.150892 -0.19225 
0.041 0.144452 -0.196513 
0.042 0.137946 -0.200675 
0.043 0.131377 -0.204737 
0.044 0.124747 -0.208698 
0.045 0.118058 -0.212559 
0.046 0.111311 -0.216319 
0.047 0.104509 -0.219978 
0.048 0.097654 -0.223535 
0.049 0.0907469 -0.226991 
0.05 0.0837896 -0.230344 
0.051 0.076784 -0.233596 
0.052 0.0697314 -0.236744 
0.053 0.0626337 -0.239789 
0.054 0.0554923 -0.242731 
0.055 0.0483088 -0.245568 
0.056 0.0410847 -0.2483 
0.057 0.0338216 -0.250926 
0.058 0.0265208 -0.253446 
0.059 0.019184 -0.255859 
0.06 0.0118126 -0.258164 
0.061 0.00440814 -0.26036 
0.062 -0.00302791 -0.262448 
0.063 -0.010494 -0.264424 
0.064 -0.0179887 -0.26629 
0.065 -0.0255104 -0.268044 
0.066 -0.0330576 -0.269684 
0.067 -0.0406286 -0.271211 
0.068 -0.048222 -0.272622 
0.069 -0.055836 -0.273917 
0.07 -0.063469 -0.275095 
0.071 -0.0711194 -0.276155 
0.072 -0.0787854 -0.277095 
0.073 -0.0864653 -0.277914 
0.074 -0.0941572 -0.278611 
0.075 -0.101859 -0.279185 
0.076 -0.10957 -0.279634 
0.077 -0.117286 -0.279957 
0.078 -0.125007 -0.280153 
0.079 -0.13273 -0.28022 
0.08 -0.140453 -0.280157 
0.081 -0.148174 -0.279963 
0.082 -0.155891 -0.279636 
0.083 -0.1636 -0.279174 
0.084 -0.171301 -0.278576 
0.085 -0.178989 -0.27784 
0.086 -0.186663 -0.276966 
0.087 -0.194319 -0.275951 
0.088 -0.201955 -0.274794 
0.089 -0.209569 -0.273493 
0.09 -0.217155 -0.272047 
0.091 -0.224713 -0.270455 
0.092 -0.232238 -0.268714 
0.093 -0.239726 -0.266824 
0.094 -0.247175 -0.264782 
0.095 -0.25458 -0.262588 
0.096 -0.261938 -0.26024 
0.097 -0.269244 -0.257736 
0.098 -0.276495 -0.255076 
0.099 -0.283686 -0.252259 
0.1 -0.290813 -0.249282 
0.101 -0.297871 -0.246146 
0.102 -0.304855 -0.242849 
0.103 -0.311761 -0.239391 
0.104 -0.318584 -0.23577 
0.105 -0.325317 -0.231987 
0.106 -0.331957 -0.228042 
0.107 -0.338497 -0.223933 
0.108 -0.344932 -0.219662 
0.109 -0.351256 -0.215228 
0.11 -0.357463 -0.210633 
0.111 -0.363548 -0.205876 
0.112 -0.369505 -0.20096 
0.113 -0.375327 -0.195885 
0.114 -0.381008 -0.190653 
0.115 -0.386544 -0.185267 
0.116 -0.391926 -0.179728 
0.117 -0.39715 -0.17404 
0.118 -0.40221 -0.168205 
0.119 -0.4071 -0.162226 
0.12 -0.411814 -0.156108 
0.121 -0.416347 -0.149855 
0.122 -0.420693 -0.14347 
0.123 -0.424847 -0.13696 
0.124 -0.428806 -0.130328 
0.125 -0.432563 -0.12358 
0.126 -0.436116 -0.116722 
0.127 -0.439459 -0.10976 
0.128 -0.442591 -0.1027 
0.129 -0.445507 -0.0955482 
0.13 -0.448206 -0.0883115 
0.131 -0.450684 -0.0809966 
0.132 -0.452941 -0.0736102 
0.133 -0.454974 -0.0661593 
0.134 -0.456784 -0.0586508 
0.135 -0.458369 -0.0510918 
0.136 -0.459729 -0.0434891 
0.137 -0.460865 -0.0358497 
0.138 -0.461778 -0.0281804 
0.139 -0.462468 -0.0204878 
0.14 -0.462937 -0.0127787 
0.141 -0.463188 -0.00505931 
0.142 -0.463221 0.00266406 
0.143 -0.46304 0.0103854 
0.144 -0.462648 0.0180988 
0.145 -0.462046 0.0257988 
0.146 -0.461239 0.0334799 
0.147 -0.460229 0.0411371 
0.148 -0.459021 0.0487654 
0.149 -0.457617 0.0563602 
0.15 -0.456021 0.063917 
0.151 -0.454238 0.0714317 
0.152 -0.45227 0.0789004 
0.153 -0.450123 0.0863194 
0.154 -0.4478 0.0936852 
0.155 -0.445304 0.100994 
0.156 -0.442641 0.108244 
0.157 -0.439814 0.115432 
0.158 -0.436827 0.122554 
0.159 -0.433683 0.129609 
0.16 -0.430388 0.136594 
0.161 -0.426944 0.143507 
0.162 -0.423356 0.150347 
0.163 -0.419627 0.15711 
0.164 -0.415761 0.163796 
0.165 -0.411762 0.170404 
0.166 -0.407632 0.176931 
0.167 -0.403377 0.183376 
0.168 -0.398998 0.189739 
0.169 -0.3945 0.196017 
0.17 -0.389886 0.202211 
0.171 -0.385158 0.208318 
0.172 -0.380321 0.214339 
0.173 -0.375377 0.220272 
0.174 -0.370328 0.226118 
0.175 -0.365179 0.231874 
0.176 -0.359931 0.237541 
0.177 -0.354588 0.243118 
0.178 -0.349152 0.248604 
0.179 -0.343626 0.254 
0.18 -0.338012 0.259304 
0.181 -0.332313 0.264517 
0.182 -0.326531 0.269638 
0.183 -0.320669 0.274667 
0.184 -0.314729 0.279603 
0.185 -0.308713 0.284446 
0.186 -0.302623 0.289197 
0.187 -0.296462 0.293854 
0.188 -0.290231 0.298419 
0.189 -0.283933 0.302889 
0.19 -0.27757 0.307267 
0.191 -0.271143 0.31155 
0.192 -0.264655 0.31574 
0.193 -0.258107 0.319836 
0.194 -0.251501 0.323838 
0.195 -0.244839 0.327746 
0.196 -0.238123 0.331559 
0.197 -0.231354 0.335279 
0.198 -0.224534 0.338904 
0.199 -0.217665 0.342435 
0.2 -0.210748 0.345871 
0.201 -0.203785 0.349213 
0.202 -0.196778 0.35246 
0.203 -0.189727 0.355613 
0.204 -0.182635 0.358671 
0.205 -0.175502 0.361634 
0.206 -0.168331 0.364502 
0.207 -0.161123 0.367276 
0.208 -0.153879 0.369954 
0.209 -0.1466 0.372538 
0.21 -0.139288 0.375026 
0.211 -0.131945 0.377419 
0.212 -0.124571 0.379717 
0.213 -0.117168 0.381919 
0.214 -0.109738 0.384026 
0.215 -0.102281 0.386037 
0.216 -0.0947986 0.387953 
0.217 -0.0872925 0.389772 
0.218 -0.0797639 0.391496 
0.219 -0.0722139 0.393124 
0.22 -0.0646437 0.394655 
0.221 -0.0570548 0.396091 
0.222 -0.0494482 0.397429 
0.223 -0.0418253 0.398671 
0.224 -0.0341872 0.399817 
0.225 -0.0265352 0.400865 
0.226 -0.0188705 0.401816 
0.227 -0.0111944 0.40267 
0.228 -0.00350808 0.403427 
0.229 0.00418723 0.404086 
0.23 0.0118903 0.404647 
0.231 0.0195999 0.40511 
0.232 0.0273147 0.405475 
0.233 0.0350336 0.405741 
0.234 0.0427553 0.405909 
0.235 0.0504784 0.405978 
0.236 0.0582018 0.405948 
0.237 0.0659242 0.405818 
0.238 0.0736443 0.405589 
0.239 0.0813608 0.405261 
0.24 0.0890724 0.404832 
0.241 0.0967777 0.404303 
0.242 0.104476 0.403674 
0.243 0.112164 0.402943 
0.244 0.119843 0.402112 
0.245 0.12751 0.40118 
0.246 0.135164 0.400146 
0.247 0.142803 0.39901 
0.248 0.150427 0.397772 
0.249 0.158033 0.396432 
0.25 0.165621 0.39499 
0.251 0.173188 0.393444 
0.252 0.180734 0.391796 
0.253 0.188256 0.390044 
0.254 0.195753 0.388189 
0.255 0.203224 0.38623 
0.256 0.210667 0.384166 
0.257 0.21808 0.381999 
0.258 0.225462 0.379727 
0.259 0.232811 0.37735 
0.26 0.240125 0.374869 
0.261 0.247402 0.372282 
0.262 0.254641 0.36959 
0.263 0.26184 0.366793 
0.264 0.268997 0.363889 
0.265 0.276111 0.36088 
0.266 0.283178 0.357766 
0.267 0.290198 0.354545 
0.268 0.297168 0.351218 
0.269 0.304087 0.347784 
0.27 0.310951 0.344245 
0.271 0.31776 0.340599 
0.272 0.324511 0.336847 
0.273 0.331202 0.332989 
0.274 0.337831 0.329025 
0.275 0.344395 0.324955 
0.276 0.350892 0.320779 
0.277 0.35732 0.316497 
0.278 0.363676 0.31211 
0.279 0.369959 0.307617 
0.28 0.376165 0.30302 
0.281 0.382293 0.298319 
0.282 0.388339 0.293513 
0.283 0.394302 0.288604 
0.284 0.400179 0.283592 
0.285 0.405966 0.278478 
0.286 0.411662 0.273262 
0.287 0.417264 0.267945 
0.288 0.422769 0.262528 
0.289 0.428175 0.257011 
0.29 0.433479 0.251397 
0.291 0.438678 0.245685 
0.292 0.443769 0.239877 
0.293 0.44875 0.233974 
0.294 0.453618 0.227978 
0.295 0.45837 0.22189 
0.296 0.463004 0.215711 
0.297 0.467517 0.209443 
0.298 0.471906 0.203087 
0.299 0.476168 0.196646 
0.3 0.480301 0.190122 
0.301 0.484303 0.183516 
0.302 0.488169 0.17683 
0.303 0.491899 0.170067 
0.304 0.49549 0.163228 
0.305 0.498939 0.156318 
0.306 0.502243 0.149337 
0.307 0.505401 0.142288 
0.308 0.508411 0.135175 
0.309 0.511269 0.128 
0.31 0.513975 0.120766 
0.311 0.516525 0.113476 
0.312 0.518919 0.106133 
0.313 0.521155 0.0987398 
0.314 0.523231 0.0913004 
0.315 0.525145 0.0838178 
0.316 0.526896 0.0762954 
0.317 0.528483 0.0687366 
0.318 0.529905 0.0611451 
0.319 0.53116 0.0535243 
0.32 0.532249 0.0458778 
0.321 0.533169 0.0382094 
0.322 0.533922 0.0305226 
0.323 0.534506 0.0228212 
0.324 0.534921 0.0151088 
0.325 0.535167 0.00738918 
0.326 0.535244 -0.000333971 
0.327 0.535152 -0.00805696 
0.328 0.534892 -0.0157761 
0.329 0.534465 -0.0234878 
0.33 0.533869 -0.0311884 
0.331 0.533108 -0.0388743 
0.332 0.532181 -0.046542 
0.333 0.53109 -0.054188 
0.334 0.529835 -0.061809 
0.335 0.528418 -0.0694014 
0.336 0.526841 -0.0769622 
0.337 0.525104 -0.084488 
0.338 0.52321 -0.0919757 
0.339 0.521161 -0.0994222 
0.34 0.518957 -0.106825 
0.341 0.516601 -0.11418 
0.342 0.514095 -0.121486 
0.343 0.511441 -0.128739 
0.344 0.508641 -0.135937 
0.345 0.505697 -0.143078 
0.346 0.502612 -0.150158 
0.347 0.499387 -0.157176 
0.348 0.496026 -0.16413 
0.349 0.492529 -0.171017 
0.35 0.488901 -0.177835 
0.351 0.485142 -0.184582 
0.352 0.481256 -0.191257 
0.353 0.477245 -0.197857 
0.354 0.473112 -0.204382 
0.355 0.468858 -0.210829 
0.356 0.464487 -0.217196 
0.357 0.460001 -0.223483 
0.358 0.455402 -0.229688 
0.359 0.450693 -0.23581 
0.36 0.445875 -0.241847 
0.361 0.440953 -0.247798 
0.362 0.435927 -0.253663 
0.363 0.430801 -0.259441 
0.364 0.425577 -0.265129 
0.365 0.420257 -0.270728 
0.366 0.414844 -0.276237 
0.367 0.409339 -0.281655 
0.368 0.403746 -0.286981 
0.369 0.398065 -0.292214 
0.37 0.392301 -0.297354 
0.371 0.386454 -0.302401 
0.372 0.380527 -0.307353 
0.373 0.374523 -0.312211 
0.374 0.368442 -0.316974 
0.375 0.362288 -0.321641 
0.376 0.356063 -0.326212 
0.377 0.349768 -0.330687 
0.378 0.343405 -0.335065 
0.379 0.336977 -0.339346 
0.38 0.330485 -0.34353 
0.381 0.323931 -0.347617 
0.382 0.317317 -0.351606 
0.383 0.310646 -0.355498 
0.384 0.303918 -0.359291 
0.385 0.297136 -0.362986 
0.386 0.290301 -0.366584 
0.387 0.283416 -0.370082 
0.388 0.276481 -0.373483 
0.389 0.269499 -0.376785 
0.39 0.262471 -0.379988 
0.391 0.255399 -0.383093 
0.392 0.248285 -0.386098 
0.393 0.241129 -0.389006 
0.394 0.233934 -0.391814 
0.395 0.226702 -0.394524 
0.396 0.219433 -0.397134 
0.397 0.212129 -0.399646 
0.398 0.204792 -0.402059 
0.399 0.197424 -0.404374 
0.4 0.190025 -0.406589 
0.401 0.182597 -0.408706 
0.402 0.175142 -0.410724 
0.403 0.167661 -0.412643 
0.404 0.160155 -0.414464 
0.405 0.152626 -0.416185 
0.406 0.145075 -0.417808 
0.407 0.137503 -0.419333 
0.408 0.129912 -0.420758 
0.409 0.122304 -0.422086 
0.41 0.114678 -0.423314 
0.411 0.107038 -0.424444 
0.412 0.0993838 -0.425476 
0.413 0.0917168 -0.426409 
0.414 0.0840386 -0.427243 
0.415 0.0763502 -0.427979 
0.416 0.0686531 -0.428617 
0.417 0.0609485 -0.429156 
0.418 0.0532375 -0.429597 
0.419 0.0455217 -0.429939 
0.42 0.037802 -0.430183 
0.421 0.0300799 -0.430329 
0.422 0.0223566 -0.430376 
0.423 0.0146332 -0.430326 
0.424 0.00691118 -0.430176 
0.425 -0.000808343 -0.429929 
0.426 -0.00852409 -0.429583 
0.427 -0.0162348 -0.429139 
0.428 -0.0239392 -0.428597 
0.429 -0.0316361 -0.427956 
0.43 -0.0393242 -0.427217 
0.431 -0.0470022 -0.42638 
0.432 -0.0546688 -0.425445 
0.433 -0.0623228 -0.424411 
0.434 -0.0699629 -0.423279 
0.435 -0.0775877 -0.422048 
0.436 -0.0851961 -0.42072 
0.437 -0.0927866 -0.419293 
0.438 -0.100358 -0.417767 
0.439 -0.107909 -0.416144 
0.44 -0.115438 -0.414422 
0.441 -0.122944 -0.412601 
0.442 -0.130425 -0.410683 
0.443 -0.137881 -0.408666 
0.444 -0.145309 -0.40655 
0.445 -0.152708 -0.404337 
0.446 -0.160078 -0.402025 
0.447 -0.167415 -0.399614 
0.448 -0.17472 -0.397105 
0.449 -0.18199 -0.394498 
0.45 -0.189225 -0.391793 
0.451 -0.196421 -0.38899 
0.452 -0.203579 -0.386088 
0.453 -0.210696 -0.383088 
0.454 -0.217771 -0.37999 
0.455 -0.224802 -0.376794 
0.456 -0.231788 -0.3735 
0.457 -0.238727 -0.370108 
0.458 -0.245617 -0.366618 
0.459 -0.252457 -0.363031 
0.46 -0.259245 -0.359346 
0.461 -0.265979 -0.355564 
0.462 -0.272657 -0.351684 
0.463 -0.279278 -0.347707 
0.464 -0.28584 -0.343634 
0.465 -0.292341 -0.339463 
0.466 -0.298779 -0.335197 
0.467 -0.305152 -0.330834 
0.468 -0.311458 -0.326375 
0.469 -0.317696 -0.32182 
0.47 -0.323863 -0.31717 
0.471 -0.329957 -0.312426 
0.472 -0.335977 -0.307586 
0.473 -0.341919 -0.302653 
0.474 -0.347783 -0.297626 
0.475 -0.353566 -0.292506 
0.476 -0.359265 -0.287294 
0.477 -0.364879 -0.281989 
0.478 -0.370405 -0.276594 
0.479 -0.375841 -0.271107 
0.48 -0.381185 -0.265531 
0.481 -0.386434 -0.259865 
0.482 -0.391587 -0.254112 
0.483 -0.39664 -0.248271 
0.484 -0.401592 -0.242343 
0.485 -0.406439 -0.23633 
0.486 -0.41118 -0.230233 
0.487 -0.415812 -0.224053 
0.488 -0.420333 -0.217791 
0.489 -0.42474 -0.211448 
0.49 -0.42903 -0.205025 
0.491 -0.433202 -0.198525 
0.492 -0.437252 -0.191949 
0.493 -0.441179 -0.185298 
0.494 -0.444979 -0.178574 
0.495 -0.44865 -0.171779 
0.496 -0.452191 -0.164915 
0.497 -0.455597 -0.157983 
0.498 -0.458867 -0.150986 
0.499 -0.461999 -0.143926 
0.5 -0.46499 -0.136805 
0.501 -0.467838 -0.129626 
0.502 -0.47054 -0.12239 
0.503 -0.473094 -0.115101 
0.504 -0.475498 -0.107761 
0.505 -0.47775 -0.100373 
0.506 -0.479847 -0.0929402 
0.507 -0.481788 -0.0854646 
0.508 -0.483571 -0.0779497 
0.509 -0.485194 -0.0703986 
0.51 -0.486656 -0.0628146 
0.511 -0.487953 -0.0552009 
0.512 -0.489086 -0.0475608 
0.513 -0.490052 -0.039898 
0.514 -0.490851 -0.0322159 
0.515 -0.49148 -0.024518 
0.516 -0.49194 -0.0168082 
0.517 -0.492228 -0.00909004 
0.518 -0.492345 -0.00136739 
0.519 -0.492289 0.00635593 
0.52 -0.49206 0.0140761 
0.521 -0.491658 0.0217891 
0.522 -0.491082 0.0294912 
0.523 -0.490333 0.0371783 
0.524 -0.48941 0.0448465 
0.525 -0.488314 0.0524918 
0.526 -0.487045 0.0601104 
0.527 -0.485604 0.0676983 
0.528 -0.483991 0.0752515 
0.529 -0.482208 0.0827663 
0.53 -0.480254 0.0902387 
0.531 -0.478133 0.0976651 
0.532 -0.475844 0.105042 
0.533 -0.473389 0.112365 
0.534 -0.47077 0.11963 
0.535 -0.467988 0.126836 
0.536 -0.465046 0.133977 
0.537 -0.461945 0.141051 
0.538 -0.458687 0.148054 
0.539 -0.455276 0.154983 
0.54 -0.451711 0.161835 
0.541 -0.447998 0.168607 
0.542 -0.444137 0.175296 
0.543 -0.440131 0.181899 
0.544 -0.435983 0.188414 
0.545 -0.431696 0.194839 
0.546 -0.427271 0.20117 
0.547 -0.422714 0.207405 
0.548 -0.418025 0.213542 
0.549 -0.413208 0.219579 
0.55 -0.408265 0.225515 
0.551 -0.403201 0.231346 
0.552 -0.398017 0.237071 
0.553 -0.392717 0.242689 
0.554 -0.387303 0.248198 
0.555 -0.381779 0.253596 
0.556 -0.376148 0.258882 
0.557 -0.370413 0.264055 
0.558 -0.364576 0.269114 
0.559 -0.358642 0.274056 
0.56 -0.352611 0.278882 
0.561 -0.346489 0.283591 
0.562 -0.340277 0.28818 
0.563 -0.333979 0.29265 
0.564 -0.327597 0.297001 
0.565 -0.321134 0.30123 
0.566 -0.314594 0.305338 
0.567 -0.307978 0.309324 
0.568 -0.30129 0.313187 
0.569 -0.294533 0.316928 
0.57 -0.287709 0.320545 
0.571 -0.280821 0.324039 
0.572 -0.273871 0.327408 
0.573 -0.266863 0.330654 
0.574 -0.259798 0.333776 
0.575 -0.25268 0.336772 
0.576 -0.24551 0.339645 
0.577 -0.238292 0.342392 
0.578 -0.231028 0.345015 
0.579 -0.223719 0.347513 
0.58 -0.21637 0.349887 
0.581 -0.208981 0.352135 
0.582 -0.201555 0.35426 
0.583 -0.194095 0.356259 
0.584 -0.186602 0.358134 
0.585 -0.17908 0.359884 
0.586 -0.17153 0.361511 
0.587 -0.163954 0.363013 
0.588 -0.156354 0.364391 
0.589 -0.148733 0.365646 
0.59 -0.141093 0.366777 
0.591 -0.133435 0.367784 
0.592 -0.125763 0.368669 
0.593 -0.118077 0.36943 
0.594 -0.11038 0.370069 
0.595 -0.102674 0.370585 
0.596 -0.0949601 0.370979 
0.597 -0.0872414 0.37125 
0.598 -0.0795194 0.3714 
0.599 -0.071796 0.371429 
0.6 -0.0640731 0.371336 
0.601 -0.0563525 0.371122 
0.602 -0.0486363 0.370787 
0.603 -0.0409263 0.370332 
0.604 -0.0332243 0.369756 
0.605 -0.0255322 0.36906 
0.606 -0.0178518 0.368245 
0.607 -0.0101852 0.36731 
0.608 -0.00253395 0.366256 
0.609 0.00509992 0.365083 
0.61 0.0127146 0.363791 
0.611 0.0203082 0.362381 
0.612 0.027879 0.360852 
0.613 0.035425 0.359206 
0.614 0.0429443 0.357442 
0.615 0.0504352 0.355561 
0.616 0.0578956 0.353563 
0.617 0.0653238 0.351447 
0.618 0.0727179 0.349216 
0.619 0.0800758 0.346868 
0.62 0.0873958 0.344404 
0.621 0.0946757 0.341824 
0.622 0.101914 0.33913 
0.623 0.109108 0.33632 
0.624 0.116256 0.333395 
0.625 0.123357 0.330356 
0.626 0.130407 0.327203 
0.627 0.137406 0.323936 
0.628 0.14435 0.320555 
0.629 0.151238 0.317062 
0.63 0.158068 0.313456 
0.631 0.164838 0.309737 
0.632 0.171545 0.305907 
0.633 0.178186 0.301965 
0.634 0.184761 0.297912 
0.635 0.191266 0.293749 
0.636 0.1977 0.289475 
0.637 0.204059 0.285092 
0.638 0.210341 0.280599 
0.639 0.216545 0.275999 
0.64 0.222667 0.27129 
0.641 0.228705 0.266474 
0.642 0.234656 0.261551 
0.643 0.240518 0.256522 
0.644 0.246289 0.251388 
0.645 0.251964 0.24615 
0.646 0.257542 0.240808 
0.647 0.26302 0.235363 
0.648 0.268395 0.229817 
0.649 0.273664 0.22417 
0.65 0.278824 0.218423 
0.651 0.283872 0.212577 
0.652 0.288805 0.206634 
0.653 0.293619 0.200595 
0.654 0.298313 0.194461 
0.655 0.302882 0.188234 
0.656 0.307323 0.181916 
0.657 0.311634 0.175507 
0.658 0.31581 0.16901 
0.659 0.319848 0.162426 
0.66 0.323745 0.155758 
0.661 0.327498 0.149007 
0.662 0.331102 0.142177 
0.663 0.334555 0.135268 
0.664 0.337853 0.128284 
0.665 0.340992 0.121227 
0.666 0.343969 0.1141 
0.667 0.34678 0.106907 
0.668 0.349422 0.0996489 
0.669 0.35189 0.0923307 
0.67 0.354183 0.0849554 
0.671 0.356296 0.0775265 
0.672 0.358225 0.0700479 
0.673 0.359968 0.0625237 
0.674 0.361521 0.0549579 
0.675 0.362881 0.0473551 
0.676 0.364044 0.0397197 
0.677 0.365008 0.0320567 
0.678 0.36577 0.0243709 
0.679 0.366327 0.0166676 
0.68 0.366676 0.00895204 
0.681 0.366816 0.00122986 
0.682 0.366743 -0.00649325 
0.683 0.366456 -0.0142114 
0.684 0.365954 -0.0219184 
0.685 0.365234 -0.0296082 
0.686 0.364295 -0.0372744 
0.687 0.363137 -0.0449105 
0.688 0.361758 -0.0525099 
0.689 0.360158 -0.0600658 
0.69 0.358338 -0.0675717 
0.691 0.356297 -0.0750206 
0.692 0.354036 -0.0824057 
0.693 0.351556 -0.0897201 
0.694 0.348858 -0.096957 
0.695 0.345944 -0.10411 
0.696 0.342816 -0.111171 
0.697 0.339476 -0.118135 
0.698 0.335926 -0.124994 
0.699 0.33217 -0.131743 
0.7 0.328212 -0.138375 
0.701 0.324053 -0.144883 
0.702 0.319699 -0.151262 
0.703 0.315154 -0.157507 
0.704 0.310422 -0.163611 
0.705 0.305508 -0.169569 
0.706 0.300416 -0.175376 
0.707 0.295153 -0.181028 
0.708 0.289722 -0.186521 
0.709 0.284131 -0.191848 
0.71 0.278384 -0.197008 
0.711 0.272486 -0.201995 
0.712 0.266445 -0.206807 
0.713 0.260266 -0.211441 
0.714 0.253955 -0.215893 
0.715 0.247519 -0.220162 
0.716 0.240962 -0.224243 
0.717 0.234292 -0.228137 
0.718 0.227514 -0.23184 
0.719 0.220635 -0.235351 
0.72 0.21366 -0.238669 
0.721 0.206597 -0.241793 
0.722 0.19945 -0.244721 
0.723 0.192226 -0.247452 
0.724 0.18493 -0.249987 
0.725 0.177569 -0.252325 
0.726 0.170148 -0.254466 
0.727 0.162673 -0.256409 
0.728 0.15515 -0.258154 
0.729 0.147583 -0.259702 
0.73 0.139979 -0.261053 
0.731 0.132342 -0.262208 
0.732 0.124678 -0.263167 
0.733 0.116993 -0.26393 
0.734 0.10929 -0.264498 
0.735 0.101576 -0.264873 
0.736 0.0938547 -0.265054 
0.737 0.0861313 -0.265043 
0.738 0.0784105 -0.264841 
0.739 0.0706971 -0.264449 
0.74 0.0629956 -0.263868 
0.741 0.0553105 -0.263098 
0.742 0.0476465 -0.262142 
0.743 0.040008 -0.261001 
0.744 0.0323992 -0.259675 
0.745 0.0248247 -0.258166 
0.746 0.0172886 -0.256475 
0.747 0.00979532 -0.254604 
0.748 0.00234904 -0.252553 
0.749 -0.00504599 -0.250325 
0.75 -0.0123856 -0.247921 
0.751 -0.0196655 -0.245341 
0.752 -0.0268817 -0.242589 
0.753 -0.0340298 -0.239664 
0.754 -0.0411058 -0.236568 
0.755 -0.0481054 -0.233304 
0.756 -0.0550244 -0.229872 
0.757 -0.0618587 -0.226274 
0.758 -0.0686039 -0.222512 
0.759 -0.0752557 -0.218587 
0.76 -0.0818099 -0.214502 
0.761 -0.0882621 -0.210257 
0.762 -0.0946078 -0.205854 
