PARAMETRIC_CURVE_CARTESIAN_2D
Damped Harmonic Oscilator - phase space trajectory
t1: 0
t2: 1
NumPoints: 1001
0 0.5 0 
0.001 0.499998 -0.000739891 
0.002 0.499991 -0.00147977 
0.003 0.499979 -0.0022196 
0.004 0.499962 -0.00295935 
0.005 0.49994 -0.00369898 
0.006 0.499914 -0.00443845 
0.007 0.499882 -0.00517773 
0.008 0.499846 -0.00591677 
0.009 0.499804 -0.00665555 
0.01 0.499758 -0.00739402 
0.011 0.499706 -0.00813216 
0.012 0.49965 -0.00886992 
0.013 0.499588 -0.00960728 
0.014 0.499521 -0.0103442 
0.015 0.499449 -0.0110806 
0.016 0.499372 -0.0118165 
0.017 0.49929 -0.0125519 
0.018 0.499202 -0.0132866 
0.019 0.49911 -0.0140207 
0.02 0.499011 -0.0147541 
0.021 0.498908 -0.0154868 
0.022 0.498799 -0.0162187 
0.023 0.498685 -0.0169498 
0.024 0.498566 -0.01768 
0.025 0.498441 -0.0184093 
0.026 0.498311 -0.0191377 
0.027 0.498175 -0.0198651 
0.028 0.498034 -0.0205915 
0.029 0.497888 -0.0213168 
0.03 0.497736 -0.0220409 
0.031 0.497578 -0.0227639 
0.032 0.497415 -0.0234857 
0.033 0.497247 -0.0242062 
0.034 0.497073 -0.0249254 
0.035 0.496893 -0.0256433 
0.036 0.496708 -0.0263597 
0.037 0.496518 -0.0270747 
0.038 0.496322 -0.0277882 
0.039 0.49612 -0.0285002 
0.04 0.495913 -0.0292105 
0.041 0.495701 -0.0299193 
0.042 0.495482 -0.0306263 
0.043 0.495259 -0.0313316 
0.044 0.49503 -0.0320352 
0.045 0.494795 -0.0327369 
0.046 0.494554 -0.0334367 
0.047 0.494309 -0.0341346 
0.048 0.494057 -0.0348306 
0.049 0.493801 -0.0355246 
0.05 0.493538 -0.0362164 
0.051 0.493271 -0.0369062 
0.052 0.492997 -0.0375939 
0.053 0.492719 -0.0382793 
0.054 0.492435 -0.0389625 
0.055 0.492145 -0.0396435 
0.056 0.49185 -0.0403221 
0.057 0.49155 -0.0409984 
0.058 0.491244 -0.0416722 
0.059 0.490933 -0.0423436 
0.06 0.490617 -0.0430125 
0.061 0.490295 -0.0436789 
0.062 0.489968 -0.0443427 
0.063 0.489636 -0.0450039 
0.064 0.489299 -0.0456625 
0.065 0.488956 -0.0463184 
0.066 0.488609 -0.0469716 
0.067 0.488256 -0.047622 
0.068 0.487898 -0.0482696 
0.069 0.487535 -0.0489144 
0.07 0.487167 -0.0495563 
0.071 0.486794 -0.0501954 
0.072 0.486416 -0.0508315 
0.073 0.486033 -0.0514647 
0.074 0.485645 -0.0520949 
0.075 0.485253 -0.0527221 
0.076 0.484855 -0.0533463 
0.077 0.484453 -0.0539673 
0.078 0.484046 -0.0545853 
0.079 0.483635 -0.0552002 
0.08 0.483218 -0.055812 
0.081 0.482798 -0.0564205 
0.082 0.482372 -0.0570259 
0.083 0.481942 -0.0576281 
0.084 0.481508 -0.0582271 
0.085 0.481069 -0.0588228 
0.086 0.480626 -0.0594152 
0.087 0.480178 -0.0600044 
0.088 0.479726 -0.0605902 
0.089 0.47927 -0.0611728 
0.09 0.478809 -0.061752 
0.091 0.478345 -0.0623279 
0.092 0.477876 -0.0629004 
0.093 0.477403 -0.0634695 
0.094 0.476926 -0.0640353 
0.095 0.476445 -0.0645977 
0.096 0.475961 -0.0651566 
0.097 0.475472 -0.0657122 
0.098 0.474979 -0.0662644 
0.099 0.474483 -0.0668131 
0.1 0.473983 -0.0673584 
0.101 0.473479 -0.0679003 
0.102 0.472972 -0.0684387 
0.103 0.47246 -0.0689737 
0.104 0.471946 -0.0695053 
0.105 0.471428 -0.0700334 
0.106 0.470906 -0.0705581 
0.107 0.470381 -0.0710793 
0.108 0.469852 -0.0715971 
0.109 0.46932 -0.0721114 
0.11 0.468785 -0.0726223 
0.111 0.468246 -0.0731298 
0.112 0.467705 -0.0736338 
0.113 0.46716 -0.0741344 
0.114 0.466612 -0.0746315 
0.115 0.466061 -0.0751252 
0.116 0.465507 -0.0756155 
0.117 0.464949 -0.0761024 
0.118 0.464389 -0.0765859 
0.119 0.463826 -0.077066 
0.12 0.46326 -0.0775427 
0.121 0.462692 -0.078016 
0.122 0.46212 -0.0784859 
0.123 0.461546 -0.0789524 
0.124 0.460969 -0.0794156 
0.125 0.460389 -0.0798755 
0.126 0.459807 -0.0803319 
0.127 0.459222 -0.0807851 
0.128 0.458635 -0.081235 
0.129 0.458045 -0.0816815 
0.13 0.457452 -0.0821247 
0.131 0.456857 -0.0825647 
0.132 0.45626 -0.0830014 
0.133 0.45566 -0.0834348 
0.134 0.455058 -0.083865 
0.135 0.454454 -0.0842919 
0.136 0.453847 -0.0847156 
0.137 0.453239 -0.0851361 
0.138 0.452628 -0.0855534 
0.139 0.452015 -0.0859676 
0.14 0.451399 -0.0863785 
0.141 0.450782 -0.0867863 
0.142 0.450162 -0.087191 
0.143 0.449541 -0.0875925 
0.144 0.448918 -0.0879909 
0.145 0.448292 -0.0883863 
0.146 0.447665 -0.0887785 
0.147 0.447035 -0.0891677 
0.148 0.446404 -0.0895538 
0.149 0.445771 -0.0899369 
0.15 0.445136 -0.090317 
0.151 0.4445 -0.090694 
0.152 0.443862 -0.0910681 
0.153 0.443221 -0.0914392 
0.154 0.44258 -0.0918074 
0.155 0.441936 -0.0921725 
0.156 0.441291 -0.0925348 
0.157 0.440644 -0.0928942 
0.158 0.439996 -0.0932506 
0.159 0.439346 -0.0936042 
0.16 0.438694 -0.093955 
0.161 0.438041 -0.0943028 
0.162 0.437387 -0.0946479 
0.163 0.436731 -0.0949901 
0.164 0.436073 -0.0953295 
0.165 0.435415 -0.0956662 
0.166 0.434754 -0.096 
0.167 0.434093 -0.0963311 
0.168 0.43343 -0.0966595 
0.169 0.432765 -0.0969852 
0.17 0.4321 -0.0973081 
0.171 0.431433 -0.0976284 
0.172 0.430764 -0.097946 
0.173 0.430095 -0.0982609 
0.174 0.429424 -0.0985732 
0.175 0.428752 -0.0988829 
0.176 0.428079 -0.09919 
0.177 0.427405 -0.0994944 
0.178 0.426729 -0.0997963 
0.179 0.426052 -0.100096 
0.18 0.425375 -0.100392 
0.181 0.424696 -0.100687 
0.182 0.424016 -0.100978 
0.183 0.423335 -0.101267 
0.184 0.422653 -0.101554 
0.185 0.42197 -0.101838 
0.186 0.421285 -0.10212 
0.187 0.4206 -0.1024 
0.188 0.419914 -0.102676 
0.189 0.419227 -0.102951 
0.19 0.418539 -0.103223 
0.191 0.41785 -0.103493 
0.192 0.41716 -0.10376 
0.193 0.416469 -0.104025 
0.194 0.415778 -0.104288 
0.195 0.415085 -0.104548 
0.196 0.414392 -0.104806 
0.197 0.413697 -0.105062 
0.198 0.413002 -0.105315 
0.199 0.412306 -0.105566 
0.2 0.411609 -0.105815 
0.201 0.410912 -0.106062 
0.202 0.410214 -0.106306 
0.203 0.409514 -0.106548 
0.204 0.408815 -0.106788 
0.205 0.408114 -0.107026 
0.206 0.407413 -0.107262 
0.207 0.40671 -0.107495 
0.208 0.406008 -0.107726 
0.209 0.405304 -0.107955 
0.21 0.4046 -0.108182 
0.211 0.403895 -0.108407 
0.212 0.403189 -0.10863 
0.213 0.402483 -0.108851 
0.214 0.401776 -0.109069 
0.215 0.401069 -0.109286 
0.216 0.400361 -0.1095 
0.217 0.399652 -0.109713 
0.218 0.398943 -0.109923 
0.219 0.398233 -0.110132 
0.22 0.397522 -0.110338 
0.221 0.396811 -0.110542 
0.222 0.3961 -0.110745 
0.223 0.395387 -0.110945 
0.224 0.394675 -0.111144 
0.225 0.393961 -0.11134 
0.226 0.393247 -0.111535 
0.227 0.392533 -0.111727 
0.228 0.391818 -0.111918 
0.229 0.391103 -0.112107 
0.23 0.390387 -0.112294 
0.231 0.389671 -0.112479 
0.232 0.388954 -0.112662 
0.233 0.388237 -0.112844 
0.234 0.387519 -0.113023 
0.235 0.386801 -0.113201 
0.236 0.386082 -0.113377 
0.237 0.385363 -0.113551 
0.238 0.384643 -0.113723 
0.239 0.383923 -0.113893 
0.24 0.383203 -0.114062 
0.241 0.382482 -0.114229 
0.242 0.381761 -0.114394 
0.243 0.381039 -0.114557 
0.244 0.380317 -0.114719 
0.245 0.379595 -0.114878 
0.246 0.378872 -0.115037 
0.247 0.378149 -0.115193 
0.248 0.377425 -0.115348 
0.249 0.376701 -0.1155 
0.25 0.375977 -0.115652 
0.251 0.375252 -0.115801 
0.252 0.374527 -0.115949 
0.253 0.373802 -0.116095 
0.254 0.373076 -0.11624 
0.255 0.372351 -0.116383 
0.256 0.371624 -0.116524 
0.257 0.370898 -0.116664 
0.258 0.370171 -0.116802 
0.259 0.369444 -0.116938 
0.26 0.368716 -0.117073 
0.261 0.367988 -0.117206 
0.262 0.36726 -0.117338 
0.263 0.366532 -0.117468 
0.264 0.365803 -0.117596 
0.265 0.365074 -0.117723 
0.266 0.364345 -0.117849 
0.267 0.363616 -0.117972 
0.268 0.362886 -0.118095 
0.269 0.362156 -0.118215 
0.27 0.361426 -0.118334 
0.271 0.360695 -0.118452 
0.272 0.359965 -0.118568 
0.273 0.359234 -0.118683 
0.274 0.358503 -0.118796 
0.275 0.357771 -0.118908 
0.276 0.35704 -0.119018 
0.277 0.356308 -0.119127 
0.278 0.355576 -0.119234 
0.279 0.354843 -0.11934 
0.28 0.354111 -0.119444 
0.281 0.353378 -0.119547 
0.282 0.352645 -0.119648 
0.283 0.351912 -0.119748 
0.284 0.351179 -0.119847 
0.285 0.350445 -0.119944 
0.286 0.349712 -0.12004 
0.287 0.348978 -0.120134 
0.288 0.348244 -0.120227 
0.289 0.34751 -0.120319 
0.29 0.346775 -0.120409 
0.291 0.346041 -0.120498 
0.292 0.345306 -0.120585 
0.293 0.344571 -0.120671 
0.294 0.343836 -0.120756 
0.295 0.343101 -0.120839 
0.296 0.342366 -0.120921 
0.297 0.34163 -0.121002 
0.298 0.340895 -0.121081 
0.299 0.340159 -0.121159 
0.3 0.339423 -0.121236 
0.301 0.338687 -0.121311 
0.302 0.337951 -0.121385 
0.303 0.337215 -0.121458 
0.304 0.336478 -0.12153 
0.305 0.335742 -0.1216 
0.306 0.335005 -0.121669 
0.307 0.334268 -0.121736 
0.308 0.333531 -0.121802 
0.309 0.332794 -0.121867 
0.31 0.332057 -0.121931 
0.311 0.33132 -0.121994 
0.312 0.330583 -0.122055 
0.313 0.329845 -0.122115 
0.314 0.329108 -0.122174 
0.315 0.32837 -0.122231 
0.316 0.327632 -0.122287 
0.317 0.326894 -0.122342 
0.318 0.326157 -0.122396 
0.319 0.325419 -0.122449 
0.32 0.32468 -0.1225 
0.321 0.323942 -0.12255 
0.322 0.323204 -0.122599 
0.323 0.322466 -0.122647 
0.324 0.321727 -0.122694 
0.325 0.320989 -0.122739 
0.326 0.32025 -0.122783 
0.327 0.319512 -0.122826 
0.328 0.318773 -0.122868 
0.329 0.318034 -0.122909 
0.33 0.317295 -0.122948 
0.331 0.316556 -0.122987 
0.332 0.315818 -0.123024 
0.333 0.315079 -0.12306 
0.334 0.314339 -0.123095 
0.335 0.3136 -0.123128 
0.336 0.312861 -0.123161 
0.337 0.312122 -0.123192 
0.338 0.311383 -0.123223 
0.339 0.310643 -0.123252 
0.34 0.309904 -0.12328 
0.341 0.309165 -0.123307 
0.342 0.308425 -0.123333 
0.343 0.307686 -0.123357 
0.344 0.306946 -0.123381 
0.345 0.306207 -0.123404 
0.346 0.305467 -0.123425 
0.347 0.304728 -0.123445 
0.348 0.303988 -0.123465 
0.349 0.303248 -0.123483 
0.35 0.302509 -0.1235 
0.351 0.301769 -0.123516 
0.352 0.301029 -0.123531 
0.353 0.30029 -0.123544 
0.354 0.29955 -0.123557 
0.355 0.29881 -0.123569 
0.356 0.29807 -0.123579 
0.357 0.29733 -0.123589 
0.358 0.296591 -0.123598 
0.359 0.295851 -0.123605 
0.36 0.295111 -0.123611 
0.361 0.294371 -0.123617 
0.362 0.293631 -0.123621 
0.363 0.292891 -0.123624 
0.364 0.292151 -0.123627 
0.365 0.291412 -0.123628 
0.366 0.290672 -0.123628 
0.367 0.289932 -0.123627 
0.368 0.289192 -0.123625 
0.369 0.288452 -0.123623 
0.37 0.287712 -0.123619 
0.371 0.286972 -0.123614 
0.372 0.286233 -0.123608 
0.373 0.285493 -0.123601 
0.374 0.284753 -0.123593 
0.375 0.284013 -0.123584 
0.376 0.283273 -0.123575 
0.377 0.282533 -0.123564 
0.378 0.281794 -0.123552 
0.379 0.281054 -0.123539 
0.38 0.280314 -0.123525 
0.381 0.279574 -0.12351 
0.382 0.278835 -0.123495 
0.383 0.278095 -0.123478 
0.384 0.277355 -0.12346 
0.385 0.276616 -0.123441 
0.386 0.275876 -0.123422 
0.387 0.275137 -0.123401 
0.388 0.274397 -0.12338 
0.389 0.273657 -0.123357 
0.39 0.272918 -0.123334 
0.391 0.272178 -0.123309 
0.392 0.271439 -0.123284 
0.393 0.2707 -0.123257 
0.394 0.26996 -0.12323 
0.395 0.269221 -0.123202 
0.396 0.268482 -0.123173 
0.397 0.267742 -0.123143 
0.398 0.267003 -0.123112 
0.399 0.266264 -0.12308 
0.4 0.265525 -0.123047 
0.401 0.264786 -0.123013 
0.402 0.264047 -0.122979 
0.403 0.263308 -0.122943 
0.404 0.262569 -0.122906 
0.405 0.26183 -0.122869 
0.406 0.261091 -0.12283 
0.407 0.260352 -0.122791 
0.408 0.259613 -0.122751 
0.409 0.258875 -0.12271 
0.41 0.258136 -0.122668 
0.411 0.257397 -0.122625 
0.412 0.256659 -0.122581 
0.413 0.25592 -0.122536 
0.414 0.255182 -0.122491 
0.415 0.254443 -0.122444 
0.416 0.253705 -0.122397 
0.417 0.252967 -0.122349 
0.418 0.252228 -0.1223 
0.419 0.25149 -0.12225 
0.42 0.250752 -0.122199 
0.421 0.250014 -0.122147 
0.422 0.249276 -0.122094 
0.423 0.248538 -0.122041 
0.424 0.2478 -0.121986 
0.425 0.247062 -0.121931 
0.426 0.246325 -0.121875 
0.427 0.245587 -0.121818 
0.428 0.244849 -0.12176 
0.429 0.244112 -0.121701 
0.43 0.243374 -0.121642 
0.431 0.242637 -0.121581 
0.432 0.2419 -0.12152 
0.433 0.241162 -0.121458 
0.434 0.240425 -0.121394 
0.435 0.239688 -0.121331 
0.436 0.238951 -0.121266 
0.437 0.238214 -0.1212 
0.438 0.237477 -0.121134 
0.439 0.23674 -0.121067 
0.44 0.236004 -0.120998 
0.441 0.235267 -0.120929 
0.442 0.23453 -0.12086 
0.443 0.233794 -0.120789 
0.444 0.233058 -0.120717 
0.445 0.232321 -0.120645 
0.446 0.231585 -0.120572 
0.447 0.230849 -0.120498 
0.448 0.230113 -0.120423 
0.449 0.229377 -0.120348 
0.45 0.228641 -0.120271 
0.451 0.227905 -0.120194 
0.452 0.227169 -0.120116 
0.453 0.226434 -0.120037 
0.454 0.225698 -0.119957 
0.455 0.224963 -0.119876 
0.456 0.224227 -0.119795 
0.457 0.223492 -0.119713 
0.458 0.222757 -0.11963 
0.459 0.222022 -0.119546 
0.46 0.221287 -0.119461 
0.461 0.220552 -0.119376 
0.462 0.219817 -0.11929 
0.463 0.219082 -0.119202 
0.464 0.218348 -0.119115 
0.465 0.217613 -0.119026 
0.466 0.216879 -0.118936 
0.467 0.216144 -0.118846 
0.468 0.21541 -0.118755 
0.469 0.214676 -0.118663 
0.47 0.213942 -0.11857 
0.471 0.213208 -0.118477 
0.472 0.212474 -0.118383 
0.473 0.21174 -0.118288 
0.474 0.211007 -0.118192 
0.475 0.210273 -0.118095 
0.476 0.20954 -0.117997 
0.477 0.208806 -0.117899 
0.478 0.208073 -0.1178 
0.479 0.20734 -0.1177 
0.48 0.206607 -0.1176 
0.481 0.205874 -0.117498 
0.482 0.205141 -0.117396 
0.483 0.204409 -0.117293 
0.484 0.203676 -0.117189 
0.485 0.202944 -0.117085 
0.486 0.202211 -0.11698 
0.487 0.201479 -0.116874 
0.488 0.200747 -0.116767 
0.489 0.200015 -0.116659 
0.49 0.199283 -0.116551 
0.491 0.198551 -0.116441 
0.492 0.19782 -0.116331 
0.493 0.197088 -0.116221 
0.494 0.196357 -0.116109 
0.495 0.195625 -0.115997 
0.496 0.194894 -0.115884 
0.497 0.194163 -0.11577 
0.498 0.193432 -0.115655 
0.499 0.192701 -0.11554 
0.5 0.191971 -0.115424 
0.501 0.19124 -0.115307 
0.502 0.19051 -0.115189 
0.503 0.189779 -0.115071 
0.504 0.189049 -0.114952 
0.505 0.188319 -0.114832 
0.506 0.187589 -0.114711 
0.507 0.186859 -0.11459 
0.508 0.18613 -0.114467 
0.509 0.1854 -0.114344 
0.51 0.184671 -0.11422 
0.511 0.183941 -0.114096 
0.512 0.183212 -0.113971 
0.513 0.182483 -0.113845 
0.514 0.181754 -0.113718 
0.515 0.181025 -0.11359 
0.516 0.180297 -0.113462 
0.517 0.179568 -0.113333 
0.518 0.17884 -0.113203 
0.519 0.178111 -0.113073 
0.52 0.177383 -0.112941 
0.521 0.176655 -0.112809 
0.522 0.175927 -0.112676 
0.523 0.1752 -0.112543 
0.524 0.174472 -0.112409 
0.525 0.173745 -0.112273 
0.526 0.173017 -0.112138 
0.527 0.17229 -0.112001 
0.528 0.171563 -0.111864 
0.529 0.170836 -0.111726 
0.53 0.17011 -0.111587 
0.531 0.169383 -0.111447 
0.532 0.168657 -0.111307 
0.533 0.16793 -0.111166 
0.534 0.167204 -0.111024 
0.535 0.166478 -0.110882 
0.536 0.165752 -0.110738 
0.537 0.165027 -0.110594 
0.538 0.164301 -0.110449 
0.539 0.163576 -0.110304 
0.54 0.16285 -0.110158 
0.541 0.162125 -0.110011 
0.542 0.1614 -0.109863 
0.543 0.160675 -0.109714 
0.544 0.159951 -0.109565 
0.545 0.159226 -0.109415 
0.546 0.158502 -0.109264 
0.547 0.157778 -0.109113 
0.548 0.157054 -0.108961 
0.549 0.15633 -0.108808 
0.55 0.155606 -0.108654 
0.551 0.154882 -0.1085 
0.552 0.154159 -0.108345 
0.553 0.153436 -0.108189 
0.554 0.152713 -0.108032 
0.555 0.15199 -0.107875 
0.556 0.151267 -0.107716 
0.557 0.150544 -0.107558 
0.558 0.149822 -0.107398 
0.559 0.1491 -0.107238 
0.56 0.148377 -0.107077 
0.561 0.147656 -0.106915 
0.562 0.146934 -0.106752 
0.563 0.146212 -0.106589 
0.564 0.145491 -0.106425 
0.565 0.144769 -0.10626 
0.566 0.144048 -0.106094 
0.567 0.143327 -0.105928 
0.568 0.142607 -0.105761 
0.569 0.141886 -0.105593 
0.57 0.141165 -0.105425 
0.571 0.140445 -0.105256 
0.572 0.139725 -0.105086 
0.573 0.139005 -0.104915 
0.574 0.138286 -0.104743 
0.575 0.137566 -0.104571 
0.576 0.136847 -0.104398 
0.577 0.136127 -0.104225 
0.578 0.135408 -0.10405 
0.579 0.13469 -0.103875 
0.58 0.133971 -0.103699 
0.581 0.133252 -0.103523 
0.582 0.132534 -0.103345 
0.583 0.131816 -0.103167 
0.584 0.131098 -0.102988 
0.585 0.13038 -0.102809 
0.586 0.129663 -0.102628 
0.587 0.128945 -0.102447 
0.588 0.128228 -0.102265 
0.589 0.127511 -0.102083 
0.59 0.126794 -0.101899 
0.591 0.126078 -0.101715 
0.592 0.125361 -0.10153 
0.593 0.124645 -0.101345 
0.594 0.123929 -0.101159 
0.595 0.123213 -0.100972 
0.596 0.122498 -0.100784 
0.597 0.121782 -0.100595 
0.598 0.121067 -0.100406 
0.599 0.120352 -0.100216 
0.6 0.119637 -0.100025 
0.601 0.118922 -0.0998335 
0.602 0.118208 -0.0996412 
0.603 0.117494 -0.0994482 
0.604 0.11678 -0.0992544 
0.605 0.116066 -0.0990598 
0.606 0.115352 -0.0988645 
0.607 0.114639 -0.0986684 
0.608 0.113926 -0.0984716 
0.609 0.113213 -0.0982741 
0.61 0.1125 -0.0980758 
0.611 0.111787 -0.0978767 
0.612 0.111075 -0.0976768 
0.613 0.110363 -0.0974763 
0.614 0.109651 -0.0972749 
0.615 0.108939 -0.0970728 
0.616 0.108228 -0.0968699 
0.617 0.107516 -0.0966663 
0.618 0.106805 -0.0964619 
0.619 0.106094 -0.0962568 
0.62 0.105384 -0.0960509 
0.621 0.104673 -0.0958442 
0.622 0.103963 -0.0956368 
0.623 0.103253 -0.0954286 
0.624 0.102543 -0.0952196 
0.625 0.101834 -0.0950099 
0.626 0.101124 -0.0947993 
0.627 0.100415 -0.0945881 
0.628 0.0997066 -0.094376 
0.629 0.098998 -0.0941632 
0.63 0.0982896 -0.0939496 
0.631 0.0975815 -0.0937352 
0.632 0.0968736 -0.0935201 
0.633 0.0961659 -0.0933042 
0.634 0.0954585 -0.0930875 
0.635 0.0947513 -0.09287 
0.636 0.0940443 -0.0926518 
0.637 0.0933376 -0.0924327 
0.638 0.0926312 -0.0922129 
0.639 0.0919249 -0.0919923 
0.64 0.091219 -0.091771 
0.641 0.0905132 -0.0915488 
0.642 0.0898078 -0.0913258 
0.643 0.0891025 -0.0911021 
0.644 0.0883975 -0.0908776 
0.645 0.0876928 -0.0906523 
0.646 0.0869883 -0.0904261 
0.647 0.0862841 -0.0901992 
0.648 0.0855802 -0.0899715 
0.649 0.0848765 -0.089743 
0.65 0.084173 -0.0895137 
0.651 0.0834698 -0.0892836 
0.652 0.0827669 -0.0890527 
0.653 0.0820643 -0.088821 
0.654 0.0813619 -0.0885885 
0.655 0.0806598 -0.0883552 
0.656 0.0799579 -0.0881211 
0.657 0.0792563 -0.0878862 
0.658 0.078555 -0.0876504 
0.659 0.077854 -0.0874139 
0.66 0.0771532 -0.0871765 
0.661 0.0764527 -0.0869383 
0.662 0.0757525 -0.0866993 
0.663 0.0750526 -0.0864595 
0.664 0.074353 -0.0862188 
0.665 0.0736536 -0.0859773 
0.666 0.0729545 -0.085735 
0.667 0.0722558 -0.0854919 
0.668 0.0715573 -0.085248 
0.669 0.0708591 -0.0850032 
0.67 0.0701611 -0.0847575 
0.671 0.0694635 -0.0845111 
0.672 0.0687662 -0.0842638 
0.673 0.0680692 -0.0840156 
0.674 0.0673725 -0.0837667 
0.675 0.0666761 -0.0835168 
0.676 0.0659799 -0.0832662 
0.677 0.0652841 -0.0830146 
0.678 0.0645886 -0.0827623 
0.679 0.0638935 -0.082509 
0.68 0.0631986 -0.0822549 
0.681 0.062504 -0.082 
0.682 0.0618098 -0.0817442 
0.683 0.0611159 -0.0814875 
0.684 0.0604223 -0.08123 
0.685 0.059729 -0.0809715 
0.686 0.059036 -0.0807123 
0.687 0.0583434 -0.0804521 
0.688 0.0576511 -0.0801911 
0.689 0.0569592 -0.0799292 
0.69 0.0562675 -0.0796664 
0.691 0.0555762 -0.0794027 
0.692 0.0548853 -0.0791381 
0.693 0.0541947 -0.0788726 
0.694 0.0535044 -0.0786063 
0.695 0.0528145 -0.078339 
0.696 0.0521249 -0.0780709 
0.697 0.0514357 -0.0778018 
0.698 0.0507469 -0.0775318 
0.699 0.0500584 -0.0772609 
0.7 0.0493702 -0.0769891 
0.701 0.0486825 -0.0767164 
0.702 0.047995 -0.0764428 
0.703 0.047308 -0.0761682 
0.704 0.0466213 -0.0758928 
0.705 0.045935 -0.0756163 
0.706 0.0452491 -0.075339 
0.707 0.0445636 -0.0750607 
0.708 0.0438784 -0.0747815 
0.709 0.0431936 -0.0745013 
0.71 0.0425093 -0.0742202 
0.711 0.0418253 -0.0739381 
0.712 0.0411417 -0.0736551 
0.713 0.0404585 -0.0733711 
0.714 0.0397757 -0.0730861 
0.715 0.0390933 -0.0728002 
0.716 0.0384113 -0.0725133 
0.717 0.0377297 -0.0722254 
0.718 0.0370486 -0.0719366 
0.719 0.0363678 -0.0716467 
0.72 0.0356875 -0.0713559 
0.721 0.0350077 -0.071064 
0.722 0.0343282 -0.0707712 
0.723 0.0336492 -0.0704774 
0.724 0.0329706 -0.0701825 
0.725 0.0322924 -0.0698867 
0.726 0.0316147 -0.0695898 
0.727 0.0309375 -0.0692919 
0.728 0.0302607 -0.068993 
0.729 0.0295844 -0.068693 
0.73 0.0289085 -0.068392 
0.731 0.0282331 -0.06809 
0.732 0.0275581 -0.0677869 
0.733 0.0268837 -0.0674827 
0.734 0.0262097 -0.0671775 
0.735 0.0255362 -0.0668712 
0.736 0.0248632 -0.0665639 
0.737 0.0241907 -0.0662554 
0.738 0.0235186 -0.0659459 
0.739 0.0228471 -0.0656353 
0.74 0.0221761 -0.0653236 
0.741 0.0215056 -0.0650108 
0.742 0.0208356 -0.0646969 
0.743 0.0201662 -0.0643819 
0.744 0.0194972 -0.0640658 
0.745 0.0188288 -0.0637485 
0.746 0.018161 -0.0634301 
0.747 0.0174937 -0.0631106 
0.748 0.0168269 -0.0627899 
0.749 0.0161607 -0.062468 
0.75 0.0154951 -0.062145 
0.751 0.01483 -0.0618208 
0.752 0.0141655 -0.0614955 
0.753 0.0135016 -0.0611689 
0.754 0.0128383 -0.0608412 
0.755 0.0121756 -0.0605122 
0.756 0.0115134 -0.0601821 
0.757 0.0108519 -0.0598507 
